0	8	3	6	17
1	15	1	5	9
2	14	4	7	11
3	11	0	9	4
4	9	2	9	12
5	13	4	8	2
6	12	4	4	4
7	5	0	0	10
8	10	4	9	1
9	8	1	6	12
10	5	4	0	18
11	14	0	8	0
12	8	0	6	17
13	11	2	7	17
14	11	2	3	1
15	6	4	6	13
16	15	2	1	7
17	10	2	1	11
18	9	2	2	6
19	13	3	0	16
20	13	3	9	18
21	11	2	7	12
22	11	0	8	7
23	11	2	6	1
24	9	1	7	15
25	12	0	8	7
26	9	2	0	13
27	6	4	6	8
28	9	4	1	19
29	14	4	3	1
30	6	2	7	19
31	14	3	0	3
32	13	3	6	4
33	13	3	7	13
34	7	1	3	6
35	6	3	4	19
36	12	4	7	10
37	11	4	8	17
38	6	3	8	1
39	11	1	9	15
40	9	2	3	17
41	8	4	6	12
42	9	4	1	17
43	18	0	4	0
44	18	2	3	11
45	9	0	4	11
46	9	1	9	4
47	8	4	5	0
48	7	0	9	10
49	14	2	8	14
50	12	3	8	12
51	8	1	7	7
52	8	2	2	18
53	11	1	0	6
54	9	1	5	3
55	14	1	4	1
56	9	4	2	11
57	8	2	5	19
58	10	1	6	18
59	18	3	8	7
60	8	4	6	4
61	2	1	5	19
62	11	0	7	18
63	10	1	8	9
64	13	2	3	13
65	7	0	0	7
66	8	1	4	4
67	6	3	0	9
68	15	1	5	9
69	10	1	1	4
70	6	3	0	8
71	11	3	5	2
72	13	3	6	1
73	12	1	7	2
74	11	1	9	1
75	11	2	1	5
76	5	3	8	13
77	8	4	6	9
78	8	0	9	15
79	7	2	1	16
80	10	0	2	13
81	19	3	2	6
82	4	1	0	0
83	7	1	5	3
84	8	0	3	13
85	10	0	9	4
86	8	0	8	3
87	15	0	5	8
88	11	1	7	12
89	11	3	4	9
90	6	0	8	3
91	11	0	4	0
92	14	1	1	16
93	8	2	0	14
94	12	4	3	13
95	12	1	3	16
96	11	4	7	7
97	13	3	5	16
98	12	1	9	2
99	8	0	4	6
100	10	1	6	7
101	8	2	0	6
102	9	0	5	4
103	10	0	4	0
104	10	4	1	9
105	17	0	2	4
106	6	4	9	8
107	14	0	9	11
108	8	4	3	12
109	12	3	5	8
110	7	3	3	6
111	10	3	9	19
112	12	0	5	10
113	6	1	6	11
114	6	2	2	5
115	10	4	5	7
116	16	2	2	9
117	7	2	3	0
118	12	0	9	1
119	11	3	5	17
120	8	2	6	1
121	8	4	7	13
122	10	0	0	4
123	11	1	1	19
124	11	0	6	19
125	15	2	9	18
126	6	3	0	6
127	7	0	3	6
128	11	2	8	7
129	11	4	6	7
130	9	2	0	15
131	10	0	5	0
132	11	3	7	10
133	14	1	1	6
134	7	2	9	18
135	5	2	2	19
136	8	4	6	0
137	10	0	6	8
138	9	2	5	1
139	10	2	5	13
140	11	4	0	9
141	10	4	2	3
142	14	0	0	9
143	12	4	8	11
144	9	2	1	11
145	13	3	1	7
146	6	2	7	3
147	10	4	5	8
148	11	2	3	0
149	12	3	1	12
150	10	3	2	4
151	8	3	2	17
152	14	0	6	14
153	7	2	0	8
154	6	2	0	8
155	8	2	4	16
156	10	2	0	3
157	10	3	8	3
158	9	2	5	17
159	8	1	7	1
160	9	4	2	10
161	11	3	4	2
162	6	0	5	2
163	7	0	7	15
164	4	4	4	2
165	8	1	5	19
166	5	3	5	17
167	7	1	7	14
168	7	4	8	4
169	11	4	1	18
170	6	2	9	9
171	10	4	6	18
172	8	0	4	9
173	12	4	8	9
174	7	2	8	18
175	13	2	1	9
176	13	4	4	15
177	7	4	2	2
178	6	2	2	8
179	9	2	3	16
180	8	0	3	10
181	14	0	1	9
182	9	1	5	5
183	11	4	4	12
184	13	1	5	4
185	10	0	6	12
186	9	2	3	2
187	11	0	4	1
188	10	0	4	11
189	11	1	0	0
190	16	0	4	4
191	6	2	4	1
192	8	3	1	4
193	9	2	9	5
194	8	1	9	5
195	11	3	1	13
196	7	4	8	14
197	9	4	4	1
198	13	4	6	10
199	9	2	3	16
200	11	4	6	0
201	8	0	9	3
202	8	3	0	0
203	6	0	1	5
204	8	4	5	3
205	10	0	8	11
206	9	2	7	7
207	14	4	1	3
208	5	0	4	18
209	14	2	4	15
210	8	0	9	2
211	10	0	3	11
212	11	1	3	0
213	8	0	3	5
214	13	4	2	1
215	11	1	0	2
216	8	0	1	11
217	6	2	6	5
218	8	2	5	4
219	11	0	1	7
220	15	1	6	4
221	19	3	4	17
222	13	3	4	10
223	7	4	3	19
224	12	2	7	2
225	10	1	9	1
226	9	1	1	3
227	7	2	2	1
228	11	2	9	6
229	9	1	1	3
230	14	1	0	19
231	14	1	2	13
232	6	3	0	15
233	12	4	3	3
234	11	1	0	11
235	14	4	5	7
236	7	4	6	7
237	10	3	6	14
238	4	0	2	4
239	9	1	4	19
240	10	4	6	15
241	11	3	0	15
242	10	0	1	1
243	11	0	0	14
244	9	4	2	14
245	9	0	6	0
246	17	2	3	18
247	14	2	9	15
248	10	4	2	12
249	12	4	7	12
250	8	2	6	2
251	10	4	9	14
252	9	4	0	7
253	9	1	6	18
254	10	3	7	11
255	14	0	5	12
256	11	4	5	0
257	6	3	9	1
258	6	3	6	17
259	8	4	3	10
260	8	2	6	8
261	10	0	0	11
262	5	1	2	17
263	11	0	9	9
264	11	1	5	13
265	13	1	8	18
266	10	2	4	15
267	14	4	4	8
268	8	2	0	16
269	7	1	9	17
270	8	0	4	17
271	10	1	0	9
272	8	0	5	13
273	10	3	2	5
274	8	0	3	19
275	12	1	4	3
276	4	0	5	17
277	8	1	9	13
278	12	0	1	2
279	17	4	1	3
280	11	1	0	3
281	11	4	2	19
282	7	1	0	14
283	14	4	1	6
284	11	1	4	4
285	13	4	8	0
286	17	4	4	13
287	16	3	9	13
288	7	2	0	1
289	5	1	2	5
290	14	1	3	19
291	10	0	9	9
292	6	2	8	5
293	8	1	3	13
294	8	3	9	9
295	9	2	4	9
296	13	0	1	1
297	11	3	2	3
298	9	0	6	19
299	7	0	1	12
300	13	3	1	15
301	12	3	3	1
302	13	1	9	0
303	7	0	6	0
304	8	1	0	10
305	11	0	5	10
306	9	2	1	2
307	14	1	2	15
308	8	3	2	16
309	4	4	9	4
310	14	3	3	11
311	11	4	3	16
312	9	2	3	1
313	9	4	9	3
314	11	2	6	19
315	11	1	0	1
316	4	4	2	6
317	8	0	5	1
318	16	3	3	12
319	11	3	2	0
320	11	1	8	9
321	11	4	6	18
322	8	4	9	8
323	7	2	9	12
324	7	4	9	15
325	7	1	8	11
326	11	3	6	2
327	9	3	8	18
328	7	4	2	11
329	10	3	6	19
330	9	3	0	0
331	10	3	3	5
332	8	0	9	0
333	8	2	3	7
334	11	1	7	10
335	14	2	4	1
336	8	3	1	17
337	9	3	1	19
338	8	1	4	18
339	7	4	0	12
340	13	3	8	3
341	10	0	9	14
342	10	2	9	15
343	12	4	6	13
344	6	4	3	10
345	5	3	9	0
346	12	0	2	5
347	6	2	3	7
348	5	0	2	4
349	11	0	5	2
350	11	1	2	2
351	1	4	3	4
352	12	1	0	19
353	7	0	1	4
354	11	0	7	4
355	7	4	4	4
356	25	1	1	3
357	7	4	0	13
358	5	0	2	12
359	6	1	9	10
360	11	4	6	17
361	9	1	2	9
362	8	3	1	15
363	8	2	6	2
364	11	4	7	19
365	5	3	6	16
366	11	0	6	18
367	13	4	7	14
368	11	1	2	4
369	13	1	2	14
370	8	4	5	7
371	12	4	8	11
372	9	0	1	7
373	16	0	4	13
374	6	3	1	3
375	8	3	0	7
376	6	3	3	19
377	6	1	8	4
378	12	0	5	12
379	13	1	7	12
380	7	1	0	2
381	11	3	0	11
382	10	2	1	2
383	11	4	1	9
384	15	3	1	18
385	8	3	6	12
386	10	1	6	16
387	5	1	7	17
388	8	4	7	7
389	6	4	0	14
390	7	3	7	5
391	5	3	7	16
392	7	2	0	1
393	4	1	9	15
394	14	0	4	5
395	18	1	7	14
396	10	3	7	7
397	10	0	1	1
398	9	0	2	0
399	9	0	7	15
400	5	1	0	12
401	10	0	3	6
402	10	3	2	18
403	5	4	3	6
404	12	4	4	10
405	7	4	8	14
406	12	2	7	7
407	6	2	5	1
408	8	2	7	17
409	10	2	9	4
410	10	4	1	10
411	7	1	8	14
412	12	0	2	5
413	8	2	7	12
414	10	1	5	13
415	14	3	0	6
416	10	3	4	11
417	10	2	5	1
418	15	1	7	8
419	16	2	2	10
420	10	0	2	1
421	9	2	9	4
422	10	2	0	16
423	8	2	3	7
424	9	0	0	6
425	11	4	5	19
426	14	3	9	15
427	22	2	8	7
428	9	1	2	12
429	7	0	2	11
430	11	1	9	0
431	12	2	5	14
432	11	1	4	12
433	11	0	4	14
434	8	2	8	9
435	8	2	8	18
436	9	3	9	4
437	10	2	5	11
438	8	0	7	2
439	9	2	5	9
440	11	3	4	19
441	9	3	2	15
442	10	2	3	7
443	13	3	2	5
444	9	2	4	19
445	4	3	3	19
446	8	2	7	2
447	10	0	2	10
448	14	2	9	10
449	12	1	6	12
450	10	3	6	14
451	11	3	1	8
452	9	2	2	13
453	7	0	5	17
454	9	4	8	17
455	9	4	8	9
456	14	0	9	8
457	8	2	6	18
458	12	3	1	12
459	5	3	3	17
460	8	2	0	0
461	8	0	3	15
462	11	0	0	5
463	11	3	1	9
464	9	3	9	6
465	9	2	1	10
466	9	3	6	15
467	8	3	2	17
468	10	2	4	0
469	6	0	9	1
470	3	2	8	1
471	11	0	5	18
472	8	1	6	10
473	10	2	1	5
474	8	1	3	4
475	6	0	8	4
476	7	0	2	5
477	9	3	3	16
478	11	0	7	1
479	10	0	2	17
480	13	0	6	8
481	8	4	6	5
482	18	1	0	17
483	13	4	1	18
484	8	4	5	18
485	9	1	1	4
486	11	1	4	9
487	8	2	9	17
488	9	1	5	1
489	5	3	8	10
490	11	0	5	10
491	10	1	8	0
492	7	2	1	19
493	11	4	3	16
494	11	1	4	3
495	7	4	9	11
496	12	0	0	12
497	9	2	7	12
498	7	2	2	18
499	11	0	2	17
500	8	4	3	15
501	12	2	4	12
502	9	4	4	3
503	11	4	3	18
504	12	1	2	4
505	14	1	5	15
506	14	4	3	11
507	7	1	4	16
508	11	2	1	17
509	18	2	9	19
510	12	0	2	2
511	7	3	9	12
512	7	4	3	18
513	12	1	3	6
514	6	3	3	12
515	10	0	0	15
516	13	2	2	5
517	9	3	8	19
518	11	0	3	0
519	11	2	2	1
520	5	0	4	4
521	10	3	7	16
522	7	3	2	19
523	13	3	5	0
524	10	0	6	3
525	7	4	4	7
526	10	1	7	4
527	11	3	1	11
528	8	0	0	1
529	6	1	7	11
530	15	2	8	3
531	7	1	4	7
532	7	1	7	12
533	4	2	6	16
534	9	1	2	17
535	14	4	4	19
536	11	2	4	0
537	17	2	4	13
538	16	2	7	9
539	9	1	6	13
540	7	1	6	1
541	9	2	0	8
542	9	4	5	14
543	16	1	1	19
544	12	2	7	1
545	16	1	5	6
546	4	3	8	15
547	6	2	2	9
548	7	3	0	4
549	12	3	3	18
550	5	1	6	3
551	12	3	2	10
552	8	1	9	5
553	6	1	5	8
554	9	4	2	2
555	5	4	5	3
556	8	0	5	11
557	6	0	9	13
558	2	1	0	12
559	9	1	4	17
560	11	2	0	10
561	8	3	2	0
562	12	0	6	19
563	15	4	1	1
564	11	3	8	13
565	10	4	7	9
566	7	3	4	5
567	14	4	9	6
568	13	3	4	2
569	10	1	5	12
570	23	3	7	18
571	9	3	1	0
572	12	2	3	2
573	7	0	4	19
574	11	1	4	18
575	9	2	2	18
576	12	3	1	12
577	9	1	8	2
578	7	2	4	16
579	14	2	7	2
580	12	0	3	14
581	11	1	6	15
582	10	4	6	8
583	16	2	3	3
584	13	3	5	4
585	9	2	2	7
586	11	3	0	15
587	10	1	4	0
588	11	2	3	5
589	8	3	8	17
590	7	1	9	16
591	6	1	4	6
592	5	1	5	6
593	9	2	4	11
594	8	0	2	9
595	10	0	5	13
596	16	1	6	12
597	7	2	4	11
598	9	3	4	12
599	6	3	5	8
600	11	1	8	15
601	7	1	8	6
602	10	4	5	9
603	7	1	6	14
604	11	0	3	0
605	11	1	6	6
606	8	2	0	19
607	8	2	3	5
608	11	1	2	17
609	18	3	9	9
610	10	2	9	0
611	15	3	6	0
612	9	2	9	9
613	8	4	6	14
614	12	2	1	10
615	8	4	4	10
616	12	3	8	11
617	13	4	8	8
618	9	3	7	9
619	10	2	8	9
620	9	3	7	13
621	8	2	3	13
622	9	2	9	7
623	5	4	5	12
624	7	1	4	13
625	10	3	2	13
626	12	1	0	14
627	8	1	7	0
628	5	1	0	0
629	10	4	8	15
630	8	2	2	16
631	6	0	9	5
632	8	1	5	9
633	10	4	3	1
634	10	0	7	1
635	11	4	0	14
636	5	3	3	19
637	14	0	5	1
638	13	4	1	11
639	10	4	6	16
640	7	2	4	10
641	14	2	2	3
642	13	4	7	7
643	11	0	8	7
644	11	2	0	12
645	11	2	4	11
646	15	2	9	7
647	6	1	8	10
648	7	0	1	10
649	15	3	5	12
650	10	3	3	3
651	15	3	9	9
652	12	4	3	17
653	7	2	0	0
654	9	0	0	3
655	10	1	6	13
656	15	3	0	3
657	8	4	9	18
658	16	1	0	17
659	8	1	8	8
660	10	0	7	4
661	13	3	6	1
662	9	1	1	16
663	9	1	0	4
664	7	1	7	7
665	11	2	8	4
666	7	3	9	7
667	10	4	4	10
668	11	0	1	13
669	16	1	3	7
670	7	4	8	16
671	14	4	4	0
672	10	0	1	2
673	12	1	1	9
674	12	0	0	5
675	11	1	5	5
676	10	4	7	12
677	12	3	6	18
678	9	0	7	3
679	10	3	7	1
680	7	1	0	15
681	9	3	3	9
682	13	4	8	18
683	11	4	6	11
684	9	4	8	11
685	7	1	7	8
686	9	1	9	15
687	5	0	3	5
688	10	4	2	16
689	10	4	8	6
690	14	2	3	18
691	13	3	0	2
692	7	2	8	3
693	11	0	8	12
694	15	4	9	7
695	5	3	0	15
696	7	2	5	2
697	12	4	3	18
698	10	4	8	17
699	4	1	4	5
700	10	2	2	14
701	7	1	9	10
702	9	3	4	6
703	8	3	7	17
704	10	0	3	6
705	15	4	7	15
706	14	0	7	0
707	11	1	4	13
708	7	3	1	8
709	10	0	0	17
710	10	2	5	11
711	11	4	2	10
712	15	0	7	1
713	6	4	9	11
714	12	0	1	18
715	18	3	4	0
716	8	2	3	16
717	6	1	5	19
718	10	0	1	4
719	12	0	2	16
720	13	2	4	19
721	15	3	3	11
722	6	2	1	4
723	11	3	2	7
724	11	2	4	19
725	13	4	3	19
726	15	1	9	17
727	13	0	6	3
728	12	2	0	7
729	8	2	1	5
730	12	2	3	13
731	11	3	3	13
732	12	3	2	0
733	12	3	9	19
734	17	2	4	3
735	12	0	3	12
736	9	3	7	15
737	17	1	0	5
738	13	1	0	17
739	10	3	4	2
740	11	2	6	13
741	13	0	3	9
742	15	4	4	13
743	9	3	1	12
744	9	1	6	8
745	4	1	3	1
746	15	3	3	11
747	6	4	5	1
748	15	0	9	6
749	13	0	6	5
750	17	0	8	15
751	2	0	9	19
752	10	1	5	14
753	9	2	6	5
754	5	3	2	19
755	16	2	1	2
756	8	3	5	0
757	10	2	0	7
758	9	1	5	15
759	12	1	5	7
760	9	1	7	8
761	9	2	4	11
762	8	1	7	4
763	11	3	6	12
764	10	3	8	11
765	11	4	5	12
766	8	2	7	15
767	13	4	8	7
768	15	2	5	19
769	10	4	5	7
770	6	4	4	3
771	19	3	7	6
772	6	3	8	12
773	11	4	5	1
774	7	4	9	5
775	13	0	1	10
776	13	4	4	4
777	10	1	7	17
778	10	1	4	5
779	9	4	0	7
780	6	0	8	16
781	12	1	0	0
782	13	1	1	1
783	13	4	2	6
784	6	4	3	13
785	9	1	0	1
786	15	4	3	2
787	7	3	5	12
788	10	3	6	2
789	15	1	9	11
790	7	4	1	16
791	16	0	0	4
792	12	0	1	5
793	8	3	8	18
794	6	4	7	14
795	7	2	0	9
796	7	3	9	18
797	8	0	6	19
798	9	3	2	9
799	8	3	7	9
800	11	1	3	14
801	13	1	9	15
802	9	3	1	17
803	14	4	5	19
804	11	3	6	16
805	12	4	0	9
806	9	4	4	12
807	14	2	4	1
808	10	1	3	0
809	12	1	6	9
810	7	1	6	18
811	10	2	2	18
812	7	2	0	18
813	9	2	2	3
814	8	4	6	13
815	13	1	9	18
816	15	3	4	10
817	9	0	5	5
818	10	3	7	2
819	10	1	8	0
820	11	4	2	6
821	13	0	6	9
822	12	3	8	0
823	11	3	0	4
824	8	3	5	13
825	9	3	7	19
826	8	3	1	1
827	6	4	4	10
828	10	0	0	18
829	11	2	1	6
830	8	1	2	12
831	8	4	4	5
832	10	3	3	6
833	7	1	9	4
834	11	3	9	0
835	7	0	3	2
836	10	3	9	9
837	7	2	5	7
838	9	0	4	2
839	10	2	5	14
840	11	4	4	1
841	11	1	5	12
842	10	1	0	1
843	12	3	4	14
844	7	4	1	18
845	9	2	1	7
846	17	2	4	11
847	10	4	9	5
848	11	2	1	8
849	11	1	5	4
850	13	3	8	14
851	17	2	0	19
852	12	3	7	3
853	9	0	3	11
854	9	2	1	8
855	15	3	2	14
856	9	4	9	10
857	5	2	2	0
858	5	1	9	19
859	15	3	6	5
860	10	2	0	15
861	10	2	3	4
862	11	3	2	19
863	11	4	9	6
864	11	4	3	9
865	17	4	7	8
866	10	2	1	18
867	13	1	5	12
868	3	2	5	6
869	9	1	5	4
870	11	2	9	10
871	11	1	0	18
872	7	0	4	12
873	15	1	4	19
874	9	3	4	1
875	14	3	0	10
876	9	2	6	0
877	11	0	9	7
878	7	1	3	4
879	14	3	8	9
880	9	1	3	3
881	9	3	7	19
882	14	1	8	1
883	13	1	0	15
884	7	1	0	8
885	9	3	4	0
886	8	2	9	7
887	15	3	7	10
888	10	2	7	12
889	9	3	5	4
890	11	2	2	7
891	10	3	4	16
892	7	0	0	13
893	4	1	2	1
894	8	4	6	17
895	4	3	4	10
896	13	1	1	5
897	13	0	2	0
898	11	1	5	5
899	11	3	0	13
900	9	2	1	3
901	10	1	9	5
902	13	0	0	3
903	9	1	8	13
904	12	4	7	1
905	14	0	6	18
906	7	4	1	12
907	9	4	8	17
908	3	2	1	18
909	7	0	3	17
910	10	2	5	12
911	12	1	1	12
912	11	4	4	18
913	16	0	8	13
914	10	3	3	18
915	5	3	6	15
916	8	0	0	10
917	7	2	3	12
918	12	3	8	0
919	16	3	2	10
920	17	1	1	11
921	6	0	9	5
922	16	4	9	17
923	12	3	8	10
924	11	2	5	17
925	10	0	0	6
926	10	0	4	8
927	12	3	7	12
928	8	2	4	7
929	10	4	9	2
930	11	0	3	7
931	6	2	4	17
932	11	3	5	14
933	7	1	9	13
934	12	4	7	14
935	12	2	2	11
936	9	4	5	9
937	7	3	5	17
938	6	1	4	11
939	13	2	2	1
940	4	4	8	5
941	11	2	0	17
942	11	1	8	12
943	9	4	7	7
944	5	3	6	0
945	6	3	4	18
946	6	0	7	5
947	9	4	5	18
948	9	2	9	14
949	18	4	3	10
950	10	3	5	0
951	6	0	8	14
952	15	0	8	17
953	12	2	2	3
954	9	0	7	0
955	8	3	9	14
956	12	0	6	0
957	8	0	8	7
958	10	1	4	8
959	7	4	9	4
960	13	3	1	10
961	11	0	7	15
962	5	4	7	4
963	10	4	1	8
964	15	4	1	12
965	8	2	9	6
966	11	1	4	18
967	10	4	9	10
968	12	0	1	8
969	10	0	4	13
970	8	4	1	15
971	11	3	0	6
972	15	0	6	17
973	4	2	0	13
974	10	0	8	17
975	7	3	0	3
976	13	4	1	19
977	8	2	0	15
978	10	0	1	1
979	11	3	9	9
980	9	2	6	10
981	9	0	6	6
982	16	0	5	12
983	13	4	2	6
984	3	0	3	9
985	10	2	6	4
986	6	3	6	17
987	7	1	7	1
988	14	0	2	17
989	11	3	6	8
990	9	1	9	8
991	15	0	4	12
992	14	4	6	6
993	12	3	3	17
994	13	0	4	2
995	8	0	9	9
996	8	0	2	4
997	12	1	4	5
998	11	3	9	10
999	17	4	1	10
