0	11	0	0	2
1	17	3	2	3
2	10	4	2	8
3	16	3	7	14
4	15	2	3	15
5	16	1	6	11
6	13	2	3	8
7	22	1	3	19
8	18	1	1	2
9	19	0	3	5
10	20	1	6	12
11	18	3	6	5
12	20	4	5	17
13	17	2	6	12
14	18	0	5	10
15	18	4	1	9
16	20	4	3	7
17	11	0	7	8
18	21	2	3	18
19	22	3	8	15
20	13	2	1	15
21	14	3	2	14
22	17	4	6	9
23	18	0	3	1
24	19	1	2	0
25	16	4	5	5
26	21	0	7	17
27	10	3	5	0
28	10	2	2	15
29	15	4	9	0
30	15	0	0	1
31	12	1	3	17
32	22	2	5	11
33	12	3	1	7
34	15	0	1	13
35	13	3	4	17
36	19	1	6	13
37	13	1	6	17
38	19	1	5	19
39	13	3	3	1
40	12	0	4	18
41	18	0	2	4
42	11	2	5	5
43	9	4	9	15
44	12	0	3	6
45	13	3	7	11
46	9	1	3	16
47	11	1	2	14
48	14	1	8	10
49	13	3	3	18
50	11	3	4	5
51	15	3	4	8
52	9	0	8	4
53	9	3	9	18
54	20	2	5	18
55	11	1	9	10
56	13	2	7	0
57	16	4	2	6
58	17	3	0	10
59	9	0	0	10
60	12	2	7	11
61	16	2	7	12
62	15	3	7	18
63	16	3	2	10
64	11	1	1	4
65	19	0	0	6
66	14	3	7	2
67	14	1	2	14
68	15	2	9	13
69	16	1	7	14
70	24	4	5	7
71	11	3	8	9
72	23	4	8	19
73	16	3	9	3
74	17	0	5	12
75	19	1	8	18
76	14	4	8	11
77	26	1	8	17
78	16	1	2	6
79	16	3	6	4
80	15	3	6	0
81	18	3	8	17
82	13	4	6	17
83	17	3	5	8
84	14	3	9	15
85	12	0	0	19
86	16	1	3	4
87	18	2	2	4
88	13	0	7	4
89	10	1	7	2
90	15	4	5	13
91	16	3	9	9
92	14	1	7	19
93	20	1	8	6
94	19	4	1	15
95	13	3	7	9
96	15	2	9	12
97	17	2	1	14
98	15	2	1	19
99	15	4	4	8
100	14	3	4	5
101	10	1	4	9
102	15	2	7	4
103	24	2	9	19
104	18	4	7	0
105	13	4	8	14
106	11	3	7	18
107	13	0	3	14
108	11	4	7	2
109	19	0	6	14
110	22	1	3	14
111	18	0	6	13
112	14	2	8	9
113	9	0	0	9
114	19	0	4	6
115	16	2	9	16
116	17	2	2	16
117	15	0	5	1
118	17	1	1	10
119	16	2	3	17
120	14	1	5	12
121	17	3	1	14
122	9	0	3	11
123	14	4	1	10
124	19	4	4	0
125	22	4	6	5
126	7	2	0	18
127	11	3	9	18
128	21	1	4	14
129	14	0	0	13
130	11	3	3	8
131	17	3	1	14
132	16	2	8	9
133	15	0	3	10
134	19	2	8	13
135	10	4	3	2
136	16	1	3	11
137	18	2	3	18
138	18	0	1	7
139	19	0	0	9
140	11	3	9	13
141	17	4	9	7
142	15	0	7	18
143	17	2	6	2
144	14	1	6	16
145	12	4	5	6
146	17	4	4	10
147	14	1	1	19
148	14	0	3	8
149	23	1	4	11
150	17	0	9	18
151	20	0	4	15
152	15	2	6	13
153	16	1	3	3
154	20	2	2	9
155	19	3	6	8
156	13	2	2	14
157	13	2	3	10
158	8	3	1	8
159	14	0	2	1
160	21	0	2	16
161	13	0	3	7
162	14	3	1	15
163	8	3	5	7
164	21	1	9	6
165	15	4	4	17
166	18	0	0	15
167	15	0	8	0
168	16	4	8	3
169	16	4	5	19
170	10	4	4	1
171	15	0	3	0
172	14	3	6	16
173	11	0	2	16
174	18	3	6	2
175	11	1	5	8
176	15	1	5	2
177	15	2	0	19
178	16	2	7	1
179	13	4	0	13
180	10	1	3	4
181	14	2	7	16
182	16	4	1	7
183	14	4	4	11
184	13	3	9	2
185	14	2	1	13
186	18	3	9	15
187	14	2	0	14
188	17	4	2	4
189	22	2	0	7
190	18	3	4	1
191	15	3	0	15
192	15	0	5	11
193	17	1	6	11
194	17	0	8	10
195	10	4	5	0
196	15	0	2	11
197	12	0	0	5
198	17	0	2	14
199	20	2	1	9
200	14	4	2	7
201	15	4	1	7
202	8	1	7	5
203	15	2	0	6
204	21	1	7	2
205	16	2	4	11
206	19	2	4	18
207	12	3	6	9
208	11	4	5	14
209	19	4	9	10
210	18	1	2	7
211	15	0	2	15
212	13	2	3	1
213	26	3	7	13
214	12	1	3	15
215	18	4	8	17
216	13	3	1	13
217	20	1	0	9
218	19	3	0	16
219	18	1	5	4
220	22	0	7	15
221	12	0	7	16
222	18	1	0	13
223	21	3	4	16
224	18	3	4	3
225	13	3	6	14
226	13	1	3	6
227	18	0	2	19
228	12	0	8	12
229	15	1	5	13
230	17	4	5	11
231	12	0	9	8
232	14	2	3	0
233	20	0	7	0
234	14	2	9	5
235	17	4	2	5
236	17	3	3	7
237	8	0	1	16
238	14	2	1	1
239	17	4	1	1
240	18	0	9	15
241	16	0	4	0
242	7	4	3	9
243	19	3	2	11
244	17	1	1	5
245	6	3	0	10
246	13	0	3	2
247	12	3	3	7
248	15	3	1	14
249	14	2	5	11
250	13	2	6	18
251	12	2	8	4
252	21	2	9	6
253	17	3	3	8
254	14	2	5	14
255	19	1	0	2
256	20	2	9	0
257	8	2	3	17
258	16	4	2	19
259	14	2	0	14
260	20	4	5	15
261	17	0	4	12
262	12	1	5	3
263	11	3	2	11
264	11	4	8	6
265	16	0	6	15
266	18	1	2	6
267	19	4	4	16
268	17	3	3	0
269	16	3	8	18
270	20	2	2	16
271	9	4	3	15
272	10	2	7	15
273	15	1	3	10
274	14	2	9	16
275	16	1	9	15
276	14	4	3	12
277	10	0	5	8
278	16	0	9	1
279	15	0	6	0
280	11	4	6	6
281	13	1	5	16
282	16	0	8	9
283	14	2	0	7
284	13	2	0	18
285	10	1	1	3
286	15	4	9	6
287	14	3	1	9
288	15	1	2	13
289	14	2	8	10
290	15	0	6	6
291	16	2	3	5
292	12	1	9	12
293	18	3	3	7
294	11	3	9	4
295	15	2	6	6
296	18	0	6	15
297	17	4	1	4
298	17	3	2	5
299	18	1	2	3
300	13	4	6	2
301	13	3	3	18
302	18	1	1	5
303	20	4	4	7
304	15	4	3	14
305	11	4	7	13
306	18	3	5	6
307	20	1	7	12
308	11	0	0	9
309	11	0	3	12
310	19	0	5	15
311	11	4	5	15
312	24	4	0	9
313	14	1	9	9
314	16	1	1	7
315	12	4	9	7
316	13	3	4	16
317	9	1	7	18
318	14	0	1	1
319	11	2	9	3
320	19	0	6	6
321	14	1	2	14
322	13	0	6	12
323	17	2	0	19
324	15	4	4	14
325	14	0	8	12
326	17	3	0	16
327	12	4	9	1
328	13	2	1	12
329	15	0	6	10
330	12	1	7	16
331	11	1	2	10
332	16	1	4	3
333	17	2	0	11
334	12	3	0	2
335	14	0	4	0
336	16	1	1	17
337	13	2	6	13
338	11	1	5	19
339	14	3	7	6
340	17	2	5	19
341	8	4	7	5
342	13	4	1	17
343	15	0	9	2
344	11	0	7	9
345	20	4	0	11
346	14	1	1	15
347	11	1	1	10
348	17	0	7	6
349	22	4	9	17
350	16	1	3	10
351	12	3	3	10
352	14	4	7	17
353	12	1	3	11
354	16	1	5	15
355	21	3	2	9
356	10	1	0	14
357	14	2	1	2
358	9	2	9	0
359	16	4	2	6
360	14	1	3	9
361	13	0	3	17
362	15	4	3	11
363	18	4	7	13
364	23	0	3	10
365	12	2	7	8
366	15	3	7	15
367	14	3	5	7
368	13	3	9	13
369	16	1	0	0
370	21	1	2	2
371	18	2	6	13
372	18	2	2	13
373	23	0	3	6
374	11	4	4	16
375	14	3	6	8
376	11	0	2	15
377	12	0	2	19
378	11	4	4	17
379	21	0	0	16
380	20	1	7	13
381	11	0	7	5
382	10	3	3	16
383	14	3	2	11
384	15	3	0	15
385	17	2	5	1
386	10	3	1	9
387	12	4	5	2
388	20	1	3	6
389	14	0	0	4
390	17	4	4	14
391	22	1	4	13
392	18	4	3	1
393	10	1	3	15
394	17	2	9	12
395	9	1	3	7
396	20	4	5	15
397	16	3	6	3
398	15	1	4	5
399	16	0	1	0
400	13	4	1	19
401	12	3	3	2
402	18	3	2	13
403	16	1	7	15
404	16	2	1	6
405	6	1	4	17
406	23	1	6	7
407	19	2	0	19
408	19	4	1	16
409	9	1	8	6
410	16	1	1	7
411	13	1	4	17
412	17	4	3	0
413	13	4	7	9
414	19	2	1	8
415	19	3	5	9
416	16	2	0	8
417	13	4	3	13
418	15	4	4	15
419	14	1	6	4
420	13	1	6	18
421	16	4	2	10
422	9	1	5	17
423	11	2	5	9
424	17	1	3	9
425	14	1	0	19
426	16	4	5	14
427	13	4	4	6
428	15	0	8	11
429	11	4	6	8
430	18	0	1	0
431	14	1	1	6
432	16	4	0	5
433	16	1	7	15
434	11	3	0	1
435	17	4	5	8
436	15	3	8	3
437	8	3	4	9
438	11	3	8	5
439	11	4	0	9
440	11	2	4	10
441	17	0	5	11
442	17	0	0	10
443	17	1	0	15
444	10	1	4	0
445	13	2	6	4
446	22	4	9	7
447	19	2	1	11
448	26	4	4	13
449	16	4	7	16
450	14	2	8	17
451	11	1	7	1
452	15	3	2	5
453	19	4	8	2
454	10	3	4	19
455	15	0	6	3
456	12	0	4	9
457	10	3	5	5
458	22	3	4	16
459	21	1	0	19
460	10	2	6	13
461	8	4	8	10
462	13	2	2	8
463	14	3	4	7
464	12	1	3	13
465	11	3	3	16
466	18	1	3	13
467	16	4	2	5
468	9	2	7	18
469	8	3	8	16
470	17	2	1	8
471	15	4	2	2
472	15	4	8	10
473	21	0	6	11
474	17	2	4	4
475	10	2	6	5
476	13	4	2	6
477	6	2	9	5
478	10	3	1	8
479	8	0	0	2
480	23	4	4	10
481	16	4	8	1
482	19	1	9	17
483	7	4	2	14
484	12	0	8	6
485	21	0	1	0
486	8	4	0	8
487	13	2	1	12
488	15	1	9	0
489	23	3	8	17
490	19	3	4	15
491	17	4	5	6
492	14	4	4	1
493	9	3	0	12
494	17	2	9	17
495	17	3	1	1
496	22	0	3	9
497	22	2	0	6
498	14	4	6	4
499	15	1	6	14
500	14	4	9	11
501	9	4	9	19
502	9	4	1	5
503	16	0	7	8
504	15	0	5	19
505	15	1	0	16
506	11	2	2	14
507	10	2	9	5
508	13	4	6	10
509	19	0	2	18
510	15	0	6	15
511	12	1	9	3
512	15	3	7	8
513	10	3	3	1
514	16	4	2	7
515	16	4	7	8
516	12	2	5	11
517	17	0	6	10
518	15	2	4	17
519	13	3	5	15
520	13	4	1	5
521	19	3	3	18
522	18	2	7	15
523	16	3	4	15
524	19	3	2	16
525	9	0	1	6
526	18	1	7	16
527	13	2	4	16
528	13	4	2	15
529	12	4	8	17
530	19	4	0	3
531	10	4	1	9
532	14	4	2	4
533	14	0	5	5
534	14	0	0	18
535	16	3	7	10
536	14	0	4	13
537	15	2	0	13
538	16	4	8	14
539	8	3	3	8
540	10	4	7	6
541	6	0	1	4
542	18	4	8	17
543	13	3	9	12
544	13	1	2	5
545	16	2	4	6
546	17	3	1	12
547	19	1	2	19
548	13	4	4	7
549	11	3	4	2
550	15	4	2	17
551	22	0	3	12
552	23	3	6	11
553	22	1	3	3
554	17	1	3	1
555	17	2	4	16
556	24	2	3	6
557	11	2	2	19
558	12	1	2	9
559	9	0	8	2
560	10	3	7	4
561	9	2	3	2
562	15	0	7	4
563	12	3	1	17
564	17	4	8	19
565	19	1	3	18
566	14	2	4	8
567	11	3	6	14
568	18	2	8	0
569	17	3	3	13
570	16	3	2	2
571	15	2	2	6
572	11	2	6	17
573	15	0	8	5
574	16	2	1	11
575	21	1	5	11
576	12	2	4	4
577	15	2	3	5
578	15	4	1	12
579	19	4	8	12
580	13	3	4	16
581	16	2	2	13
582	22	0	3	14
583	26	1	0	4
584	15	0	7	18
585	23	4	4	16
586	8	4	7	5
587	14	2	7	5
588	10	1	9	17
589	20	1	8	18
590	19	1	9	7
591	10	4	3	11
592	15	0	8	10
593	14	3	9	11
594	16	1	0	3
595	14	1	6	6
596	25	4	2	10
597	11	0	8	14
598	7	3	6	9
599	18	1	9	6
600	13	4	5	14
601	17	1	0	4
602	11	0	9	9
603	20	1	2	5
604	16	1	4	9
605	25	3	7	11
606	15	3	1	7
607	15	3	7	18
608	22	2	6	5
609	14	4	2	18
610	14	3	4	15
611	15	2	0	19
612	7	0	6	10
613	17	1	9	12
614	11	0	8	17
615	16	2	7	8
616	20	3	4	8
617	15	4	7	1
618	16	3	5	5
619	9	4	7	5
620	13	3	8	9
621	10	3	1	7
622	12	0	7	7
623	14	2	6	2
624	19	0	1	12
625	13	1	3	13
626	17	0	4	6
627	13	1	2	13
628	16	2	8	11
629	8	0	2	19
630	15	0	5	14
631	21	1	3	13
632	22	2	4	11
633	18	1	0	7
634	13	4	5	17
635	20	1	1	3
636	6	4	5	6
637	14	1	1	18
638	14	0	3	19
639	19	0	2	4
640	7	0	0	8
641	21	1	4	10
642	16	1	1	9
643	10	2	0	6
644	11	1	9	17
645	17	4	2	14
646	12	4	2	18
647	19	2	5	2
648	18	1	3	6
649	9	2	7	9
650	19	1	7	5
651	14	3	2	6
652	15	0	2	13
653	16	0	5	19
654	17	2	4	17
655	12	0	5	8
656	13	4	6	7
657	14	3	3	19
658	13	4	1	6
659	12	3	0	9
660	12	1	3	11
661	14	2	7	14
662	13	0	0	9
663	12	4	9	8
664	13	1	6	2
665	17	4	6	0
666	17	1	7	5
667	16	4	6	19
668	17	1	4	16
669	7	0	3	9
670	19	2	3	7
671	20	3	8	14
672	16	1	2	18
673	10	2	2	4
674	8	4	4	4
675	24	4	1	1
676	10	0	8	11
677	12	3	5	13
678	13	2	7	14
679	12	3	7	9
680	10	3	0	19
681	20	1	4	12
682	16	0	1	3
683	14	4	4	9
684	14	3	9	0
685	13	2	2	8
686	15	0	2	5
687	19	1	4	14
688	18	4	1	12
689	23	4	3	19
690	8	0	6	8
691	14	1	2	15
692	15	4	4	0
693	13	0	3	3
694	11	1	4	5
695	16	0	9	19
696	15	1	2	4
697	18	4	7	3
698	16	2	8	0
699	9	3	4	12
700	14	4	1	18
701	12	4	5	17
702	14	4	9	12
703	16	0	7	19
704	16	4	9	19
705	14	3	8	11
706	12	1	6	17
707	14	2	5	10
708	18	1	7	4
709	13	2	8	7
710	17	4	1	17
711	11	1	6	19
712	15	3	2	8
713	14	4	6	1
714	15	3	8	0
715	12	4	3	2
716	13	4	8	9
717	16	0	3	4
718	12	2	0	15
719	14	0	8	15
720	11	1	0	3
721	12	4	7	12
722	19	1	5	16
723	6	0	3	12
724	17	3	1	14
725	10	3	5	11
726	17	3	6	2
727	20	3	8	8
728	18	0	5	8
729	13	0	1	12
730	20	4	4	5
731	15	0	8	6
732	14	3	5	14
733	13	0	4	18
734	13	1	1	9
735	11	4	1	19
736	14	3	0	3
737	18	1	9	16
738	11	2	3	0
739	20	0	0	18
740	12	1	0	5
741	18	0	0	5
742	12	0	8	4
743	12	3	1	17
744	22	3	0	9
745	15	2	5	16
746	18	4	9	18
747	14	2	7	14
748	10	3	8	5
749	17	2	1	1
750	6	3	6	4
751	13	1	0	1
752	22	2	6	8
753	18	1	6	11
754	17	0	8	2
755	12	2	4	14
756	20	1	4	2
757	18	2	2	16
758	14	0	5	10
759	15	1	3	10
760	15	0	2	12
761	15	0	2	18
762	15	3	6	3
763	17	4	5	19
764	10	2	5	7
765	13	3	3	4
766	19	2	9	13
767	12	4	9	8
768	11	3	3	0
769	16	4	6	10
770	15	2	4	16
771	17	0	1	14
772	13	1	0	8
773	18	2	7	15
774	16	1	6	18
775	16	3	3	14
776	13	1	8	8
777	19	4	7	14
778	16	0	8	18
779	22	2	9	15
780	14	1	0	14
781	19	1	6	1
782	11	3	8	7
783	20	3	7	6
784	16	2	2	16
785	13	1	8	5
786	15	4	5	9
787	15	1	2	8
788	10	1	6	11
789	13	2	2	1
790	16	4	2	5
791	14	3	8	0
792	22	3	4	3
793	10	4	4	6
794	12	0	6	15
795	23	1	9	17
796	23	0	6	3
797	18	4	2	6
798	14	1	2	2
799	19	4	9	15
800	20	0	7	15
801	12	2	1	12
802	15	4	9	2
803	14	3	9	19
804	9	2	7	15
805	11	1	4	4
806	13	3	7	11
807	17	2	4	10
808	14	0	3	4
809	17	3	9	19
810	15	3	8	14
811	26	1	9	5
812	14	4	0	16
813	12	3	0	9
814	21	0	0	7
815	15	1	7	0
816	16	3	7	19
817	12	3	2	17
818	19	3	8	8
819	17	0	2	10
820	16	4	6	0
821	11	4	8	18
822	12	3	6	1
823	15	1	1	2
824	16	3	9	18
825	16	3	4	2
826	17	4	1	15
827	20	3	1	11
828	20	4	7	2
829	8	1	9	18
830	13	4	5	15
831	18	4	1	5
832	17	1	2	5
833	21	4	9	8
834	17	3	4	8
835	18	0	8	5
836	16	1	7	14
837	15	3	9	18
838	18	1	8	9
839	15	4	6	12
840	16	1	1	12
841	17	1	9	9
842	16	1	0	11
843	20	4	3	4
844	14	3	0	6
845	13	4	3	11
846	23	4	3	10
847	17	0	1	15
848	17	0	8	12
849	21	3	8	13
850	13	2	4	11
851	15	3	2	19
852	12	2	3	11
853	19	2	4	4
854	11	4	2	11
855	15	2	4	5
856	11	2	3	0
857	9	4	9	10
858	19	4	1	2
859	16	0	8	4
860	13	2	3	5
861	15	1	9	6
862	18	0	4	17
863	22	4	3	17
864	17	4	7	13
865	14	3	5	5
866	20	2	4	14
867	10	2	3	12
868	17	1	8	18
869	17	3	6	11
870	18	1	6	8
871	13	4	2	7
872	13	2	9	2
873	15	3	3	16
874	21	4	9	19
875	17	4	3	9
876	15	2	7	0
877	9	3	6	13
878	20	4	5	3
879	12	2	7	3
880	14	2	5	6
881	18	1	1	6
882	20	3	4	18
883	17	1	8	7
884	16	1	6	16
885	10	3	7	2
886	15	2	3	14
887	18	4	3	6
888	7	3	2	5
889	19	4	1	3
890	18	3	6	14
891	16	0	0	16
892	20	2	6	0
893	22	0	3	6
894	16	3	2	17
895	8	1	8	1
896	12	0	2	10
897	13	0	8	1
898	6	2	3	15
899	16	3	9	11
900	16	4	6	6
901	13	4	2	13
902	8	4	5	13
903	9	3	1	12
904	12	2	9	10
905	18	2	3	19
906	15	1	7	14
907	9	3	4	13
908	26	2	4	4
909	20	0	6	16
910	19	3	9	18
911	16	2	8	8
912	21	3	8	17
913	15	0	8	3
914	10	0	1	19
915	13	0	7	18
916	17	0	6	2
917	11	3	9	0
918	21	4	0	5
919	14	2	6	12
920	16	4	9	9
921	24	2	6	13
922	10	1	4	19
923	14	3	0	1
924	22	2	2	15
925	12	2	7	5
926	17	2	6	0
927	10	4	6	16
928	17	1	0	16
929	19	4	1	3
930	10	3	4	15
931	15	2	4	3
932	17	4	1	17
933	13	0	4	10
934	16	0	6	18
935	9	0	9	14
936	18	3	6	6
937	13	2	1	15
938	12	2	8	4
939	10	4	9	15
940	17	0	7	9
941	12	0	5	3
942	15	1	7	3
943	21	0	6	3
944	12	3	3	6
945	17	2	6	13
946	15	0	2	14
947	19	1	4	7
948	15	4	1	2
949	14	2	7	5
950	16	1	2	9
951	10	1	4	14
952	17	1	7	6
953	14	0	0	9
954	16	2	7	17
955	8	4	8	6
956	13	2	5	15
957	17	0	5	3
958	17	2	5	9
959	7	1	8	0
960	11	3	2	19
961	15	4	6	14
962	14	4	2	18
963	13	4	1	3
964	13	1	2	0
965	23	1	5	5
966	15	0	7	14
967	7	2	1	12
968	12	3	9	12
969	12	4	5	2
970	13	2	0	4
971	16	4	0	10
972	16	3	5	14
973	21	1	0	0
974	19	3	6	15
975	13	3	7	4
976	19	4	9	3
977	12	1	5	9
978	23	2	9	0
979	20	3	2	13
980	17	4	7	8
981	15	0	2	18
982	10	1	0	4
983	16	0	6	3
984	24	4	4	3
985	16	3	0	19
986	14	4	9	18
987	16	3	0	13
988	21	1	7	8
989	16	1	2	6
990	10	4	2	15
991	20	2	0	1
992	10	1	5	4
993	14	0	3	17
994	17	0	9	8
995	10	3	0	9
996	14	3	9	13
997	14	1	7	3
998	9	2	0	8
999	17	4	0	6
1000	20	3	1	7
1001	8	1	4	3
1002	14	4	6	3
1003	18	2	0	5
1004	15	2	1	8
1005	19	3	1	16
1006	16	2	3	1
1007	19	3	6	0
1008	11	3	9	15
1009	19	4	1	1
1010	19	2	2	6
1011	16	1	2	8
1012	15	1	1	4
1013	6	3	1	7
1014	16	4	1	6
1015	14	4	8	7
1016	13	1	2	12
1017	13	3	0	19
1018	15	4	5	2
1019	20	1	0	9
1020	19	0	0	8
1021	19	0	2	1
1022	21	1	7	6
1023	13	1	0	15
1024	10	0	7	19
1025	11	1	2	14
1026	13	4	9	17
1027	9	2	5	2
1028	12	3	9	11
1029	13	0	5	4
1030	19	4	6	12
1031	16	3	3	11
1032	15	4	0	11
1033	20	0	9	15
1034	18	1	6	18
1035	11	2	9	19
1036	15	0	6	2
1037	19	3	2	16
1038	13	0	8	19
1039	12	0	5	19
1040	12	1	5	0
1041	18	3	3	9
1042	17	4	2	8
1043	9	1	4	13
1044	17	1	1	16
1045	17	1	0	18
1046	13	0	9	19
1047	15	1	7	1
1048	12	1	9	9
1049	9	0	8	0
1050	14	2	2	16
1051	9	2	6	18
1052	14	4	8	12
1053	11	0	1	17
1054	6	0	5	5
1055	13	3	5	6
1056	17	4	9	16
1057	14	1	1	0
1058	19	0	5	13
1059	14	2	4	18
1060	8	1	2	9
1061	12	1	0	0
1062	21	3	4	15
1063	15	3	8	14
1064	13	2	9	19
1065	14	2	0	7
1066	10	2	7	8
1067	18	3	6	13
1068	9	3	8	5
1069	19	0	7	9
1070	11	0	4	11
1071	16	1	4	4
1072	14	3	2	4
1073	12	4	3	10
1074	22	3	6	14
1075	20	1	1	8
1076	18	1	4	18
1077	15	2	7	0
1078	18	1	2	9
1079	15	2	8	14
1080	13	4	6	2
1081	13	0	8	16
1082	19	1	7	9
1083	18	4	4	3
1084	14	4	4	14
1085	15	0	9	8
1086	17	3	0	11
1087	12	2	7	16
1088	19	4	4	5
1089	16	3	6	9
1090	15	4	7	13
1091	19	0	9	1
1092	18	4	9	2
1093	15	0	0	16
1094	14	4	8	3
1095	8	2	5	17
1096	17	4	3	17
1097	14	4	3	13
1098	17	2	4	15
1099	16	3	4	18
1100	13	2	9	3
1101	17	1	5	8
1102	11	1	4	16
1103	14	1	3	11
1104	12	0	5	6
1105	19	2	5	16
1106	16	1	0	8
1107	11	0	2	11
1108	16	1	9	0
1109	16	2	5	1
1110	11	1	9	10
1111	22	3	8	10
1112	15	4	6	16
1113	11	2	3	13
1114	9	3	0	6
1115	18	4	8	9
1116	16	0	9	13
1117	14	4	8	6
1118	10	4	5	7
1119	13	4	2	13
1120	9	4	6	10
1121	17	2	7	0
1122	20	4	6	7
1123	11	1	2	10
1124	14	2	9	1
1125	16	3	2	18
1126	17	2	1	0
1127	14	1	3	7
1128	9	4	8	5
1129	14	2	3	5
1130	16	2	2	13
1131	12	0	3	14
1132	16	2	8	3
1133	14	1	0	13
1134	19	2	5	10
1135	13	4	6	18
1136	16	3	5	4
1137	16	3	1	15
1138	7	1	6	5
1139	20	4	9	16
1140	17	4	2	15
1141	14	3	6	5
1142	8	2	3	2
1143	14	2	8	1
1144	16	2	1	13
1145	15	1	8	7
1146	16	0	0	0
1147	15	3	3	10
1148	16	4	7	14
1149	11	3	9	17
1150	7	3	5	12
1151	19	4	0	12
1152	13	4	9	9
1153	18	3	7	15
1154	7	3	9	0
1155	15	1	0	13
1156	11	3	7	18
1157	14	1	2	1
1158	11	0	5	0
1159	14	4	5	7
1160	11	1	8	4
1161	14	4	6	16
1162	17	2	5	16
1163	13	2	8	7
1164	10	0	2	6
1165	12	4	9	19
1166	19	4	4	7
1167	8	4	5	8
1168	10	3	6	13
1169	20	3	7	14
1170	11	1	1	10
1171	18	3	4	9
1172	9	0	4	19
1173	13	0	2	1
1174	11	1	0	9
1175	11	4	6	2
1176	16	4	9	5
1177	15	1	1	9
1178	14	0	8	4
1179	10	2	7	4
1180	13	4	1	9
1181	21	3	3	18
1182	18	3	4	16
1183	7	0	1	15
1184	13	4	0	1
1185	8	2	8	14
1186	16	2	0	5
1187	15	0	5	8
1188	19	3	6	12
1189	13	4	3	13
1190	20	2	0	12
1191	22	0	5	17
1192	23	2	1	8
1193	14	4	4	0
1194	11	0	0	14
1195	18	2	0	3
1196	14	4	0	2
1197	15	1	8	9
1198	15	1	7	14
1199	11	2	8	6
1200	13	0	7	17
1201	12	4	3	17
1202	17	0	8	15
1203	11	4	1	9
1204	22	1	1	12
1205	8	1	2	7
1206	6	2	1	9
1207	15	4	1	12
1208	15	0	8	8
1209	21	0	6	11
1210	26	3	2	15
1211	12	1	1	13
1212	14	3	5	4
1213	20	3	9	7
1214	17	3	6	3
1215	16	4	4	19
1216	13	0	4	14
1217	13	1	3	18
1218	22	4	0	14
1219	16	4	2	10
1220	14	1	4	8
1221	10	1	6	7
1222	17	2	2	10
1223	13	0	2	15
1224	16	4	1	1
1225	10	2	7	9
1226	19	1	3	18
1227	17	4	0	11
1228	14	4	4	10
1229	13	1	0	10
1230	12	0	2	1
1231	16	0	7	3
1232	20	0	6	19
1233	13	2	3	12
1234	16	3	1	12
1235	18	1	2	0
1236	22	2	4	2
1237	15	0	8	7
1238	12	1	2	19
1239	12	3	2	0
1240	20	0	6	0
1241	21	0	3	14
1242	15	3	7	7
1243	12	3	3	5
1244	12	0	5	14
1245	14	4	4	7
1246	20	2	9	0
1247	16	0	8	6
1248	12	1	7	5
1249	12	1	5	1
1250	18	4	0	1
1251	15	0	0	18
1252	10	2	9	14
1253	18	0	8	15
1254	15	4	2	3
1255	13	2	2	5
1256	9	0	0	0
1257	9	1	0	18
1258	13	0	9	3
1259	10	1	3	4
1260	23	4	7	19
1261	15	3	1	19
1262	15	4	1	2
1263	15	3	4	14
1264	16	1	0	4
1265	13	0	0	1
1266	20	1	3	4
1267	22	2	2	0
1268	16	0	6	1
1269	28	0	1	8
1270	23	4	3	15
1271	7	4	7	15
1272	15	0	5	7
1273	12	4	2	15
1274	16	2	6	13
1275	13	0	7	5
1276	12	1	1	1
1277	16	3	6	10
1278	11	1	1	3
1279	12	3	2	2
1280	14	0	4	18
1281	14	3	8	2
1282	16	1	0	5
1283	16	1	2	14
1284	16	3	5	2
1285	17	3	2	19
1286	14	2	1	16
1287	14	0	5	12
1288	12	4	1	1
1289	13	2	7	16
1290	24	1	0	0
1291	21	1	6	2
1292	10	3	5	7
1293	22	2	4	10
1294	16	3	7	17
1295	20	1	8	11
1296	11	4	4	16
1297	8	2	2	18
1298	17	3	1	0
1299	10	1	1	19
1300	18	0	1	16
1301	13	2	5	8
1302	22	1	5	10
1303	19	0	6	3
1304	19	3	6	14
1305	16	0	0	19
1306	17	3	7	6
1307	10	1	1	6
1308	18	2	3	13
1309	17	3	4	10
1310	14	3	2	2
1311	10	2	9	18
1312	19	3	8	11
1313	17	0	0	2
1314	19	4	4	3
1315	17	1	4	16
1316	25	0	1	2
1317	14	3	3	3
1318	12	3	9	10
1319	20	4	5	1
1320	8	4	1	11
1321	14	2	1	18
1322	26	0	2	13
1323	9	2	9	14
1324	18	2	2	9
1325	16	3	3	5
1326	17	4	0	7
1327	26	3	0	16
1328	17	3	2	16
1329	18	4	1	8
1330	16	1	2	0
1331	14	0	3	2
1332	20	4	0	17
1333	18	0	3	1
1334	12	1	0	4
1335	13	1	7	7
1336	14	4	2	16
1337	15	4	9	14
1338	21	0	0	11
1339	14	4	4	11
1340	15	2	8	18
1341	20	2	3	13
1342	7	3	6	14
1343	13	3	2	19
1344	10	3	4	7
1345	19	2	6	9
1346	16	4	2	0
1347	13	3	6	14
1348	18	2	4	14
1349	17	3	8	1
1350	13	0	8	14
1351	20	0	1	17
1352	16	1	6	8
1353	17	3	7	9
1354	15	0	7	19
1355	14	0	0	10
1356	18	2	2	18
1357	18	4	8	15
1358	16	1	5	3
1359	18	0	7	2
1360	19	4	6	3
1361	7	0	7	15
1362	12	1	4	3
1363	9	2	4	19
1364	9	4	6	18
1365	21	2	6	15
1366	16	3	5	4
1367	7	4	2	12
1368	17	3	4	2
1369	15	4	7	16
1370	17	3	1	15
1371	12	4	0	15
1372	16	2	3	9
1373	16	2	5	4
1374	17	3	2	18
1375	6	3	8	11
1376	15	3	0	10
1377	20	1	9	7
1378	10	1	9	15
1379	19	0	2	9
1380	14	1	0	4
1381	21	2	9	18
1382	17	4	8	13
1383	14	0	9	15
1384	19	4	6	18
1385	13	3	5	7
1386	16	3	5	14
1387	8	4	4	3
1388	16	1	1	15
1389	17	1	4	1
1390	20	1	9	7
1391	15	1	8	17
1392	17	0	9	4
1393	16	4	7	10
1394	13	4	5	17
1395	12	0	3	12
1396	10	4	9	11
1397	12	1	0	7
1398	14	2	7	16
1399	8	1	9	17
1400	14	1	0	15
1401	13	4	3	15
1402	11	3	8	7
1403	18	0	5	14
1404	12	2	4	8
1405	13	1	6	5
1406	25	0	6	2
1407	16	3	7	5
1408	17	2	9	3
1409	10	4	7	8
1410	17	0	2	1
1411	16	0	5	18
1412	19	2	8	14
1413	12	4	0	5
1414	20	2	8	13
1415	15	1	1	15
1416	11	1	1	9
1417	13	1	6	11
1418	22	0	5	7
1419	19	1	0	1
1420	15	2	7	15
1421	15	1	0	0
1422	7	0	3	15
1423	12	4	4	13
1424	18	2	5	9
1425	13	4	8	13
1426	18	0	9	18
1427	22	3	8	0
1428	13	0	1	2
1429	12	1	6	12
1430	16	4	2	9
1431	18	1	3	10
1432	14	3	7	7
1433	19	4	4	11
1434	13	1	6	3
1435	12	4	5	0
1436	18	2	6	8
1437	14	1	1	17
1438	17	4	9	1
1439	22	4	5	14
1440	15	0	0	1
1441	13	1	0	13
1442	13	1	6	16
1443	15	0	7	4
1444	11	0	6	7
1445	10	1	7	17
1446	13	0	3	17
1447	16	1	1	17
1448	16	0	8	16
1449	10	1	4	19
1450	15	2	4	14
1451	14	0	3	3
1452	17	1	4	4
1453	15	1	0	4
1454	12	3	0	12
1455	16	2	2	19
1456	11	4	8	6
1457	14	4	9	5
1458	19	0	3	12
1459	9	4	4	16
1460	15	0	1	15
1461	18	0	6	7
1462	15	0	6	14
1463	14	3	1	10
1464	18	3	7	8
1465	12	0	0	2
1466	12	3	8	14
1467	22	1	8	17
1468	16	4	8	18
1469	10	1	0	19
1470	15	4	6	17
1471	18	3	4	0
1472	12	4	4	13
1473	9	1	0	13
1474	12	2	2	3
1475	20	1	7	11
1476	12	4	6	1
1477	11	0	1	10
1478	14	0	0	18
1479	18	1	0	5
1480	14	3	9	4
1481	23	1	6	4
1482	19	1	9	18
1483	10	3	3	3
1484	13	4	3	17
1485	11	2	0	13
1486	23	0	7	18
1487	15	3	4	6
1488	11	1	9	7
1489	16	4	9	4
1490	11	3	5	4
1491	25	4	0	15
1492	12	3	9	14
1493	15	0	2	11
1494	10	0	6	2
1495	16	4	2	10
1496	15	2	8	12
1497	19	3	8	0
1498	11	2	6	17
1499	9	0	7	11
