0	19	0	4	18
1	26	1	4	5
2	14	3	6	11
3	25	3	8	10
4	14	1	4	6
5	19	0	4	0
6	18	3	4	1
7	25	4	1	6
8	24	3	9	9
9	22	0	0	11
10	27	3	7	8
11	18	0	6	19
12	21	2	7	6
13	25	0	4	2
14	21	1	2	17
15	23	0	7	11
16	17	4	1	8
17	23	3	4	17
18	18	1	3	13
19	19	0	1	6
20	26	4	8	17
21	19	2	6	9
22	25	2	6	7
23	19	4	1	11
24	24	3	1	16
25	19	0	6	17
26	13	2	0	13
27	15	4	5	13
28	15	3	7	14
29	24	0	1	3
30	23	2	8	0
31	18	2	2	12
32	14	0	9	15
33	10	2	5	18
34	22	2	6	9
35	19	2	5	9
36	25	0	2	19
37	25	1	0	18
38	17	3	9	18
39	14	1	1	2
40	20	2	1	4
41	21	3	8	9
42	16	4	4	1
43	22	2	5	3
44	11	1	0	13
45	19	2	7	3
46	20	1	0	17
47	21	0	8	12
48	17	3	1	15
49	14	3	6	8
50	24	4	0	1
51	17	3	7	1
52	21	0	4	3
53	12	3	8	0
54	17	0	2	5
55	18	0	7	10
56	27	2	8	11
57	16	1	4	5
58	18	3	8	5
59	23	4	2	0
60	18	0	3	9
61	17	1	4	2
62	22	1	2	0
63	25	3	9	10
64	25	3	8	9
65	22	3	2	7
66	16	1	9	4
67	21	0	3	4
68	21	1	3	15
69	22	3	2	3
70	18	4	2	17
71	16	0	1	9
72	15	1	5	7
73	30	1	3	14
74	21	3	2	13
75	24	2	5	7
76	23	2	8	5
77	24	1	6	0
78	23	0	3	4
79	22	1	8	13
80	16	4	0	19
81	17	2	0	13
82	22	2	6	18
83	23	2	5	4
84	23	4	4	19
85	31	0	8	14
86	25	4	5	9
87	28	4	0	14
88	21	3	3	0
89	22	3	8	2
90	20	2	2	9
91	15	0	4	0
92	15	2	7	15
93	21	1	7	7
94	20	1	1	13
95	26	3	6	16
96	19	0	3	16
97	16	0	4	17
98	19	0	0	12
99	12	0	7	9
100	16	1	2	8
101	21	3	7	7
102	14	2	4	10
103	19	3	6	10
104	21	1	6	0
105	16	0	9	13
106	21	2	4	11
107	15	0	1	8
108	14	2	6	6
109	22	3	6	15
110	14	3	5	9
111	15	4	4	15
112	21	1	9	3
113	21	4	8	5
114	21	0	9	4
115	21	3	8	11
116	19	1	3	4
117	16	0	7	0
118	16	3	0	10
119	12	2	4	10
120	21	4	3	2
121	19	3	1	4
122	26	4	0	9
123	19	4	8	5
124	19	2	9	6
125	26	2	3	17
126	17	4	7	10
127	24	1	1	7
128	22	1	3	7
129	15	2	6	16
130	31	4	2	5
131	17	1	0	1
132	16	3	2	18
133	16	4	9	5
134	19	4	6	3
135	15	2	3	18
136	18	3	1	8
137	16	2	2	3
138	22	4	7	3
139	12	3	6	18
140	11	4	1	13
141	23	3	4	1
142	18	0	7	11
143	14	3	3	9
144	20	2	3	16
145	29	0	3	17
146	16	2	3	8
147	19	1	9	11
148	10	4	8	13
149	15	0	1	0
150	24	3	5	7
151	20	3	4	1
152	25	4	9	6
153	14	1	0	11
154	12	4	0	11
155	21	1	6	12
156	24	1	0	4
157	20	0	2	0
158	16	4	6	13
159	26	0	4	7
160	19	1	9	19
161	20	0	6	12
162	18	2	2	19
163	18	0	0	12
164	18	1	9	19
165	24	2	1	12
166	19	4	6	16
167	15	3	0	5
168	16	2	1	18
169	16	0	4	17
170	23	4	5	3
171	17	2	1	2
172	24	1	3	15
173	23	2	3	11
174	21	1	3	12
175	20	1	1	16
176	28	2	7	7
177	16	0	5	19
178	13	2	3	9
179	19	3	9	12
180	16	3	0	8
181	17	2	3	12
182	22	0	7	7
183	18	3	4	4
184	15	3	9	9
185	16	4	4	11
186	22	0	0	9
187	16	4	1	10
188	19	0	1	19
189	24	0	1	14
190	21	1	5	1
191	28	0	3	11
192	18	0	8	4
193	21	1	1	14
194	13	0	7	12
195	19	0	9	15
196	22	3	4	14
197	26	3	9	16
198	9	1	9	15
199	20	0	0	11
200	20	1	0	15
201	24	4	4	7
202	22	1	3	7
203	20	4	0	9
204	18	0	2	8
205	13	4	7	16
206	23	0	8	10
207	23	4	9	16
208	24	1	3	16
209	21	4	7	18
210	21	3	0	3
211	11	2	9	18
212	19	4	1	1
213	19	1	4	9
214	21	4	9	10
215	26	1	2	15
216	25	1	7	14
217	17	0	9	11
218	18	0	7	4
219	20	4	7	7
220	23	3	8	17
221	23	3	7	16
222	19	2	2	17
223	15	2	8	17
224	20	4	9	11
225	27	3	5	17
226	12	3	5	5
227	21	0	7	10
228	15	2	2	15
229	22	2	5	7
230	17	1	1	5
231	20	0	1	16
232	21	3	0	10
233	14	3	0	19
234	23	4	2	5
235	19	0	4	1
236	18	1	3	17
237	19	1	2	0
238	22	3	2	0
239	23	4	5	17
240	21	3	7	17
241	23	1	5	14
242	18	0	5	4
243	18	4	4	7
244	13	1	2	14
245	27	2	5	4
246	20	2	7	10
247	26	1	8	12
248	26	1	9	0
249	19	1	5	11
250	17	0	3	5
251	21	0	3	9
252	16	4	8	2
253	17	2	2	11
254	24	1	8	2
255	16	0	3	13
256	18	3	9	5
257	27	2	0	12
258	22	1	9	10
259	19	2	1	13
260	16	0	1	16
261	25	3	7	3
262	12	0	7	15
263	23	2	0	6
264	22	3	9	1
265	18	0	5	5
266	21	0	1	14
267	18	1	6	18
268	25	3	7	10
269	22	1	6	9
270	20	0	0	5
271	16	2	9	13
272	20	3	3	1
273	10	4	3	3
274	22	0	9	17
275	23	0	3	15
276	21	4	5	5
277	16	3	0	1
278	23	0	5	13
279	19	1	0	10
280	25	2	7	13
281	20	0	6	2
282	18	2	5	10
283	24	4	8	0
284	23	3	7	1
285	15	0	9	13
286	18	1	9	14
287	22	2	3	4
288	21	1	0	18
289	13	0	9	0
290	14	0	2	3
291	16	0	7	19
292	18	3	3	13
293	25	1	8	2
294	22	1	1	18
295	18	4	7	11
296	23	3	0	19
297	19	1	9	12
298	27	2	7	15
299	17	0	2	14
300	16	4	7	12
301	23	3	9	1
302	30	2	8	1
303	17	1	8	6
304	26	2	7	10
305	19	3	5	3
306	22	3	8	4
307	14	1	4	8
308	15	3	2	8
309	18	1	4	16
310	19	2	5	11
311	18	2	5	2
312	17	3	4	19
313	14	2	6	12
314	19	1	2	3
315	18	4	5	7
316	26	4	4	13
317	18	3	3	5
318	24	4	2	14
319	21	3	6	8
320	16	0	0	17
321	19	3	6	16
322	17	4	4	16
323	19	3	7	18
324	19	0	9	9
325	25	2	0	6
326	20	3	4	2
327	22	1	0	4
328	18	0	1	15
329	15	0	4	0
330	12	3	0	15
331	19	1	6	11
332	26	0	3	12
333	27	4	5	17
334	24	2	4	17
335	17	1	3	8
336	20	0	2	8
337	26	2	5	11
338	22	4	2	16
339	27	4	1	13
340	21	1	7	7
341	21	1	2	8
342	20	3	6	9
343	18	1	5	15
344	13	2	6	10
345	20	4	0	11
346	17	2	6	3
347	24	0	8	11
348	23	2	2	3
349	22	4	1	8
350	24	0	1	9
351	18	3	2	12
352	19	2	6	12
353	18	3	9	11
354	11	0	5	6
355	19	4	9	5
356	17	1	8	8
357	15	3	6	17
358	16	2	5	6
359	15	3	0	6
360	22	0	5	14
361	19	3	1	2
362	11	1	2	19
363	23	0	8	9
364	24	1	2	5
365	15	0	6	5
366	24	4	9	15
367	17	3	5	19
368	13	0	9	6
369	29	2	2	17
370	22	3	4	5
371	26	1	3	2
372	28	4	8	19
373	19	3	8	18
374	20	4	5	5
375	19	3	0	3
376	19	1	6	10
377	23	2	8	13
378	15	0	4	12
379	20	2	6	4
380	15	0	7	5
381	19	2	9	12
382	17	1	4	13
383	16	2	7	1
384	19	0	0	3
385	12	4	8	6
386	17	1	4	16
387	26	3	1	12
388	18	4	5	10
389	22	2	4	13
390	22	4	5	1
391	27	3	9	15
392	19	4	1	13
393	25	3	7	12
394	15	0	3	17
395	24	2	9	6
396	23	1	3	10
397	16	3	3	0
398	20	4	8	17
399	20	1	6	18
400	17	1	0	3
401	13	1	2	9
402	24	2	2	3
403	14	0	6	12
404	16	4	7	6
405	16	2	1	8
406	22	1	3	12
407	20	2	1	16
408	23	0	3	4
409	17	4	0	6
410	12	4	5	12
411	25	0	9	6
412	15	1	6	1
413	21	4	0	12
414	22	3	6	19
415	15	2	1	0
416	15	4	5	5
417	30	1	1	4
418	23	1	8	7
419	21	3	6	5
420	21	0	3	10
421	16	2	9	16
422	17	4	4	12
423	26	0	7	6
424	14	3	5	9
425	21	4	4	16
426	25	1	5	11
427	24	1	7	18
428	24	2	1	0
429	23	4	1	19
430	14	1	6	16
431	17	4	4	6
432	19	0	9	16
433	24	1	1	0
434	28	3	7	7
435	21	2	9	16
436	22	3	1	3
437	18	0	3	5
438	21	3	6	7
439	24	4	6	2
440	26	2	7	16
441	20	4	3	4
442	27	0	7	3
443	23	0	3	18
444	15	0	9	17
445	19	4	8	14
446	22	0	3	7
447	22	2	8	13
448	22	1	8	5
449	32	4	7	12
450	25	4	0	1
451	22	2	4	5
452	24	1	6	5
453	23	1	5	14
454	22	0	5	10
455	20	1	6	2
456	20	3	6	6
457	26	1	2	12
458	29	4	5	7
459	24	2	5	15
460	30	4	2	12
461	14	2	7	14
462	21	1	0	11
463	17	0	3	15
464	19	2	1	1
465	21	1	3	4
466	24	1	6	11
467	19	3	9	1
468	13	4	8	2
469	24	1	5	18
470	25	0	6	18
471	13	2	6	5
472	13	4	4	11
473	17	4	4	10
474	20	0	1	16
475	22	2	2	4
476	22	2	0	12
477	24	3	8	0
478	17	4	0	11
479	19	3	4	0
480	27	2	2	15
481	20	3	1	7
482	16	0	7	15
483	20	1	2	16
484	16	2	1	7
485	19	2	1	2
486	29	2	4	6
487	20	4	6	10
488	22	1	6	5
489	26	0	8	5
490	14	0	6	13
491	18	1	6	2
492	19	3	1	7
493	17	0	3	10
494	20	3	7	10
495	16	4	8	15
496	23	3	0	7
497	21	4	3	7
498	21	2	6	15
499	21	2	2	0
500	16	4	0	12
501	24	2	0	7
502	17	0	4	10
503	9	1	3	15
504	10	3	9	19
505	23	2	1	16
506	21	0	7	13
507	16	4	1	13
508	19	1	9	2
509	23	2	5	1
510	19	1	2	15
511	22	1	6	2
512	20	1	1	18
513	21	0	8	4
514	16	0	2	13
515	14	0	8	15
516	19	4	3	15
517	18	1	9	14
518	14	4	4	14
519	16	0	1	2
520	22	4	5	10
521	19	1	5	0
522	21	3	0	8
523	15	4	1	11
524	27	1	7	8
525	14	4	1	12
526	29	3	8	14
527	23	1	0	13
528	22	1	4	4
529	28	1	5	19
530	19	4	5	8
531	25	2	5	6
532	16	1	8	9
533	22	4	8	10
534	26	4	9	19
535	19	3	4	0
536	16	0	2	12
537	18	0	1	17
538	20	3	0	11
539	24	1	0	18
540	17	3	5	1
541	19	2	3	13
542	15	2	9	8
543	17	4	6	8
544	19	4	0	15
545	17	1	3	16
546	21	0	8	16
547	20	3	6	14
548	23	0	9	18
549	18	4	3	13
550	17	1	0	11
551	22	1	8	18
552	13	2	0	7
553	21	2	1	10
554	19	0	4	17
555	20	3	2	13
556	17	0	6	11
557	13	2	4	13
558	29	4	5	13
559	18	2	2	14
560	21	1	3	16
561	12	0	1	14
562	20	1	6	12
563	13	2	9	12
564	21	4	9	8
565	16	2	0	7
566	21	3	2	8
567	23	0	5	4
568	23	2	6	15
569	15	0	3	19
570	18	2	7	17
571	18	3	3	1
572	22	1	2	15
573	19	2	4	0
574	15	4	8	10
575	27	0	9	10
576	22	0	3	18
577	16	3	9	10
578	18	2	2	19
579	12	3	4	15
580	14	0	2	3
581	26	2	1	11
582	18	1	9	10
583	32	3	2	16
584	23	2	7	16
585	26	3	1	14
586	18	0	7	0
587	19	2	6	13
588	24	0	3	16
589	17	4	6	11
590	22	0	9	15
591	16	0	3	8
592	19	2	3	8
593	26	3	3	8
594	24	4	8	12
595	25	0	7	13
596	25	3	1	2
597	20	4	1	8
598	12	4	8	9
599	19	1	7	11
600	22	3	4	9
601	22	4	6	5
602	17	0	7	0
603	23	4	4	4
604	27	3	2	12
605	16	2	4	3
606	22	1	3	0
607	16	2	8	3
608	15	0	7	5
609	17	4	8	13
610	28	2	8	14
611	19	1	6	4
612	16	0	9	1
613	15	3	6	12
614	25	2	2	15
615	19	0	7	11
616	26	3	0	3
617	16	0	1	0
618	23	4	9	16
619	15	1	8	0
620	19	2	6	5
621	19	0	6	8
622	17	3	9	14
623	26	1	6	0
624	15	4	1	18
625	23	1	0	15
626	20	0	1	7
627	17	0	6	2
628	17	3	0	7
629	27	2	8	14
630	19	2	5	11
631	14	2	6	10
632	23	0	6	19
633	23	3	7	12
634	17	1	0	14
635	15	0	8	6
636	20	3	8	6
637	25	3	1	11
638	24	0	8	12
639	19	2	7	7
640	23	0	9	10
641	19	2	0	6
642	22	3	6	13
643	7	2	2	16
644	14	1	9	8
645	25	0	5	4
646	25	2	4	0
647	14	1	0	10
648	20	1	6	0
649	12	4	3	9
650	17	0	9	0
651	26	2	4	7
652	24	1	7	19
653	22	1	9	13
654	22	3	8	11
655	18	2	9	6
656	24	3	6	10
657	17	1	7	10
658	20	1	4	13
659	16	1	2	14
660	14	4	4	8
661	19	0	3	16
662	19	3	6	16
663	25	1	7	7
664	23	0	7	6
665	19	0	6	10
666	11	4	0	1
667	24	2	6	2
668	19	4	8	16
669	26	0	8	16
670	15	0	3	10
671	17	4	4	15
672	17	4	1	0
673	18	1	4	16
674	20	4	3	7
675	19	1	3	19
676	22	3	7	2
677	18	1	8	7
678	25	2	3	15
679	19	0	0	0
680	16	3	1	9
681	25	4	3	9
682	30	2	0	15
683	19	4	0	13
684	14	4	7	13
685	23	3	4	14
686	26	4	1	11
687	28	0	9	18
688	23	0	7	15
689	22	3	8	16
690	15	4	6	6
691	18	0	4	17
692	28	1	1	14
693	22	3	6	19
694	14	4	8	9
695	32	3	1	8
696	19	1	3	1
697	30	2	9	3
698	25	2	1	4
699	37	0	3	11
700	21	3	4	4
701	15	2	8	1
702	18	3	9	14
703	19	1	9	12
704	17	0	4	0
705	29	3	2	17
706	25	1	6	15
707	25	3	1	10
708	20	0	6	12
709	29	2	4	15
710	15	0	3	15
711	26	4	2	19
712	22	3	0	10
713	16	0	4	10
714	25	1	0	0
715	25	0	9	14
716	23	1	3	5
717	16	3	5	13
718	14	1	8	12
719	18	2	4	6
720	14	1	8	19
721	13	3	7	1
722	15	1	4	11
723	14	1	2	6
724	24	3	1	15
725	23	3	8	16
726	25	2	7	9
727	17	0	3	16
728	21	4	4	7
729	19	1	4	3
730	18	1	9	0
731	24	2	6	2
732	19	2	5	0
733	17	0	2	2
734	20	1	9	9
735	22	3	5	8
736	17	4	9	19
737	21	1	9	17
738	27	0	5	11
739	30	3	7	8
740	16	0	8	6
741	13	2	1	19
742	15	2	4	16
743	28	2	3	7
744	17	1	2	17
745	21	2	9	6
746	12	3	3	19
747	22	2	2	9
748	15	1	2	8
749	17	0	2	3
750	21	0	9	12
751	24	2	7	11
752	20	1	4	6
753	20	4	7	9
754	14	1	7	17
755	23	3	4	4
756	20	4	1	6
757	24	3	2	5
758	18	0	2	8
759	13	3	5	1
760	24	0	1	7
761	16	4	5	19
762	20	1	2	4
763	20	3	1	18
764	16	2	7	13
765	27	4	7	1
766	22	0	0	18
767	12	2	0	4
768	15	1	2	2
769	15	0	9	6
770	20	2	5	10
771	14	1	0	19
772	19	4	1	10
773	15	2	9	17
774	21	3	6	13
775	21	0	7	12
776	9	0	5	15
777	19	1	4	3
778	25	3	2	8
779	15	0	2	10
780	13	1	9	2
781	22	1	1	18
782	26	3	4	13
783	15	4	6	2
784	21	2	1	5
785	15	1	8	11
786	17	0	4	16
787	25	0	2	3
788	15	1	6	18
789	22	3	4	6
790	24	0	4	11
791	14	3	3	12
792	9	1	5	16
793	16	1	1	1
794	13	4	0	13
795	16	4	5	8
796	19	4	7	0
797	18	0	8	7
798	18	1	9	19
799	15	3	9	3
800	18	4	4	13
801	19	4	1	14
802	22	3	4	16
803	21	4	1	0
804	25	4	0	5
805	19	2	8	4
806	25	2	2	8
807	21	0	6	9
808	25	4	0	8
809	17	3	3	11
810	18	2	8	1
811	26	1	3	12
812	22	0	6	13
813	19	1	7	15
814	16	3	6	14
815	16	4	2	19
816	25	2	9	16
817	18	0	3	5
818	19	3	9	8
819	21	0	1	17
820	26	4	1	8
821	18	0	2	9
822	21	0	7	10
823	27	0	3	16
824	24	4	3	16
825	22	2	8	1
826	11	0	8	15
827	21	4	2	18
828	19	1	9	14
829	21	1	6	16
830	22	4	6	13
831	13	0	9	0
832	22	3	9	9
833	21	1	8	10
834	22	1	5	5
835	20	0	2	15
836	20	2	4	18
837	26	0	0	13
838	27	3	5	18
839	13	0	0	17
840	13	0	9	0
841	18	3	1	16
842	28	0	9	5
843	19	2	3	15
844	18	2	5	8
845	10	2	3	19
846	24	4	1	3
847	20	2	9	14
848	12	0	0	9
849	27	3	3	17
850	24	0	3	8
851	23	2	4	14
852	21	3	3	17
853	12	0	8	6
854	15	3	1	4
855	21	2	1	18
856	28	4	0	16
857	16	1	7	3
858	16	3	5	6
859	17	2	0	0
860	17	0	5	4
861	19	4	0	16
862	22	0	0	9
863	13	0	4	5
864	25	1	1	17
865	17	4	2	7
866	21	0	5	4
867	12	2	8	7
868	14	3	3	7
869	22	3	5	0
870	19	4	9	9
871	26	4	8	7
872	22	3	9	19
873	19	3	3	9
874	28	0	4	17
875	14	2	3	3
876	19	3	6	14
877	20	4	4	12
878	16	4	4	2
879	21	3	4	7
880	31	2	0	4
881	22	3	4	12
882	13	1	1	4
883	12	2	2	19
884	18	2	9	16
885	23	4	1	8
886	19	1	8	13
887	16	0	0	12
888	15	4	7	4
889	17	3	8	19
890	19	4	7	13
891	19	4	3	9
892	23	2	3	3
893	25	4	2	3
894	17	1	6	19
895	19	4	3	4
896	19	1	4	1
897	14	1	3	13
898	10	0	9	15
899	19	1	2	5
900	14	4	4	4
901	14	3	2	8
902	28	3	0	19
903	23	1	7	6
904	16	0	2	9
905	20	1	9	7
906	21	1	1	7
907	20	2	6	16
908	23	0	0	18
909	23	1	0	8
910	21	1	2	14
911	20	0	9	3
912	18	0	3	14
913	20	2	9	1
914	20	0	4	15
915	28	4	3	13
916	19	4	8	14
917	20	4	9	0
918	19	0	2	3
919	19	0	8	12
920	22	3	0	12
921	24	2	7	6
922	16	1	0	14
923	20	3	7	3
924	28	3	5	7
925	28	1	5	16
926	24	4	5	16
927	24	2	4	7
928	22	2	5	1
929	20	2	4	9
930	20	1	4	12
931	15	0	0	8
932	16	4	9	8
933	20	2	3	5
934	16	2	8	0
935	24	2	0	3
936	16	4	4	15
937	19	4	4	8
938	15	2	1	6
939	13	4	3	0
940	19	1	3	12
941	13	2	1	13
942	15	2	8	10
943	21	4	0	9
944	18	0	5	16
945	15	1	0	6
946	15	2	4	12
947	13	1	3	7
948	10	1	7	12
949	17	0	7	18
950	20	2	6	11
951	24	0	1	8
952	20	4	4	17
953	26	1	3	9
954	17	2	5	15
955	19	0	2	7
956	20	0	0	12
957	25	4	1	2
958	22	3	2	1
959	18	0	1	7
960	22	1	3	16
961	16	0	3	5
962	24	4	0	15
963	25	2	0	19
964	14	4	5	17
965	15	3	1	2
966	17	2	1	10
967	17	3	0	18
968	14	1	5	16
969	12	0	2	3
970	18	3	4	2
971	18	2	5	9
972	18	2	8	11
973	19	0	9	8
974	20	2	3	9
975	15	4	7	4
976	15	2	3	10
977	24	1	9	17
978	36	0	5	13
979	14	2	7	16
980	19	0	8	16
981	18	3	4	7
982	18	2	5	19
983	28	0	4	11
984	23	2	0	1
985	21	2	6	15
986	23	3	1	19
987	19	4	2	7
988	18	0	7	19
989	12	1	3	1
990	24	0	9	6
991	22	4	2	12
992	20	2	1	14
993	20	0	9	7
994	25	2	5	11
995	24	3	9	17
996	20	2	4	17
997	31	3	3	13
998	27	1	8	8
999	22	4	4	14
1000	22	3	5	14
1001	19	3	2	5
1002	16	3	2	11
1003	20	1	3	5
1004	29	2	8	6
1005	19	0	1	5
1006	18	0	3	18
1007	15	1	0	10
1008	26	2	0	12
1009	16	3	7	6
1010	21	4	9	12
1011	15	0	3	16
1012	18	3	8	9
1013	24	0	5	8
1014	26	1	1	11
1015	21	1	9	19
1016	17	2	5	18
1017	23	3	6	1
1018	17	0	3	13
1019	13	0	8	4
1020	27	1	1	4
1021	19	0	4	16
1022	21	0	5	12
1023	16	0	8	14
1024	21	2	0	18
1025	19	2	6	9
1026	22	1	4	4
1027	18	0	6	8
1028	21	1	7	17
1029	12	4	7	9
1030	16	1	0	11
1031	20	0	0	2
1032	22	4	2	16
1033	24	1	9	11
1034	26	1	2	10
1035	26	3	9	7
1036	22	1	6	7
1037	22	3	6	12
1038	24	3	5	16
1039	25	3	8	6
1040	25	4	0	6
1041	16	3	4	12
1042	25	0	2	5
1043	17	4	8	13
1044	17	4	1	12
1045	19	1	0	14
1046	27	1	8	17
1047	8	0	2	12
1048	20	1	1	4
1049	24	4	2	1
1050	17	1	7	9
1051	14	3	7	15
1052	25	4	1	11
1053	19	3	6	18
1054	17	2	8	9
1055	18	4	7	18
1056	18	1	3	15
1057	28	0	1	8
1058	16	4	1	3
1059	18	3	9	3
1060	22	3	6	11
1061	27	3	7	5
1062	10	0	4	4
1063	20	1	9	5
1064	21	4	6	19
1065	20	2	4	11
1066	22	4	5	15
1067	22	2	9	5
1068	24	2	7	9
1069	19	2	2	3
1070	13	3	3	12
1071	21	2	3	12
1072	19	3	2	12
1073	19	2	7	10
1074	17	1	3	5
1075	22	2	1	6
1076	17	0	6	3
1077	17	2	2	15
1078	17	1	1	16
1079	19	4	6	8
1080	25	1	0	16
1081	16	0	8	1
1082	28	0	7	18
1083	21	0	2	18
1084	17	2	6	17
1085	16	0	9	19
1086	22	1	0	13
1087	26	3	4	11
1088	20	3	0	7
1089	22	4	9	4
1090	18	4	8	2
1091	14	3	2	15
1092	23	1	8	2
1093	21	2	0	6
1094	24	3	0	5
1095	11	1	5	6
1096	21	1	0	16
1097	24	4	4	13
1098	19	0	3	5
1099	24	0	4	0
1100	13	2	3	8
1101	22	2	8	15
1102	12	1	5	11
1103	17	3	8	16
1104	12	4	5	0
1105	21	3	7	19
1106	19	2	1	1
1107	21	3	1	8
1108	21	0	0	11
1109	20	3	3	13
1110	25	1	1	15
1111	26	0	4	3
1112	16	2	3	13
1113	24	2	4	16
1114	19	0	6	3
1115	17	1	0	5
1116	17	3	3	10
1117	19	2	5	6
1118	19	0	5	3
1119	16	1	4	7
1120	20	4	2	7
1121	20	2	2	3
1122	24	0	4	1
1123	18	1	0	15
1124	18	2	1	17
1125	18	1	2	4
1126	23	3	4	3
1127	18	1	9	4
1128	23	3	7	10
1129	13	1	8	17
1130	15	3	4	6
1131	20	4	9	3
1132	15	0	0	14
1133	17	4	6	2
1134	22	2	6	4
1135	26	2	1	1
1136	18	3	1	13
1137	20	1	7	7
1138	16	1	7	7
1139	22	3	5	2
1140	23	0	9	2
1141	24	1	1	16
1142	16	4	3	0
1143	21	2	4	6
1144	16	3	7	0
1145	21	1	7	19
1146	8	4	1	18
1147	17	1	0	14
1148	20	0	8	2
1149	17	2	1	12
1150	24	2	6	8
1151	15	3	3	4
1152	20	1	9	8
1153	20	0	1	11
1154	25	1	3	11
1155	25	0	2	15
1156	16	2	5	19
1157	27	4	2	11
1158	25	4	4	17
1159	21	3	0	16
1160	15	3	0	17
1161	14	3	0	4
1162	16	1	3	10
1163	21	3	0	5
1164	14	3	4	14
1165	17	0	9	7
1166	19	1	9	12
1167	17	2	8	7
1168	15	0	0	8
1169	27	0	8	8
1170	30	4	1	19
1171	10	2	3	5
1172	19	4	6	7
1173	16	3	9	17
1174	16	4	0	5
1175	20	1	7	2
1176	16	1	5	1
1177	18	4	2	3
1178	21	0	4	0
1179	21	0	1	14
1180	26	0	3	4
1181	14	0	7	11
1182	24	1	6	11
1183	22	3	7	1
1184	24	1	5	1
1185	15	2	7	10
1186	23	0	0	10
1187	24	3	3	11
1188	24	1	4	10
1189	18	2	5	11
1190	22	0	6	1
1191	21	4	2	0
1192	20	1	1	6
1193	20	0	6	11
1194	22	4	3	10
1195	18	0	6	13
1196	12	0	9	1
1197	20	3	8	8
1198	19	3	4	14
1199	24	4	4	7
1200	22	2	4	12
1201	13	0	9	14
1202	19	3	3	8
1203	20	4	6	1
1204	19	4	8	15
1205	19	2	7	3
1206	12	4	3	11
1207	19	0	1	18
1208	16	2	5	0
1209	20	3	5	6
1210	20	0	8	15
1211	18	3	3	7
1212	23	4	8	4
1213	17	3	2	2
1214	18	3	3	8
1215	8	4	2	6
1216	25	2	1	0
1217	27	2	9	14
1218	24	1	0	14
1219	20	3	1	1
1220	24	2	0	15
1221	19	0	6	17
1222	24	4	9	15
1223	24	3	7	5
1224	18	0	6	12
1225	16	0	3	2
1226	21	1	9	1
1227	20	3	5	5
1228	19	2	8	7
1229	16	2	4	12
1230	12	4	4	6
1231	31	3	1	17
1232	27	0	3	13
1233	20	2	0	5
1234	31	2	5	0
1235	26	0	4	12
1236	22	2	8	11
1237	17	3	1	7
1238	31	4	3	11
1239	19	3	4	2
1240	20	2	0	14
1241	22	2	6	16
1242	23	3	9	11
1243	19	4	0	4
1244	27	1	5	13
1245	23	3	5	16
1246	18	3	9	0
1247	16	2	3	15
1248	24	4	5	8
1249	15	2	6	19
1250	15	3	0	5
1251	22	2	6	16
1252	22	2	1	16
1253	19	3	1	18
1254	18	2	2	19
1255	21	3	0	8
1256	26	1	0	4
1257	20	1	5	14
1258	20	2	8	13
1259	14	0	6	14
1260	25	2	5	14
1261	25	2	8	17
1262	20	3	7	2
1263	20	3	2	8
1264	23	0	4	0
1265	21	0	9	9
1266	17	1	0	17
1267	25	1	3	18
1268	16	3	7	0
1269	25	1	0	0
1270	26	1	7	10
1271	22	0	5	9
1272	26	1	2	6
1273	16	4	1	10
1274	19	0	5	5
1275	21	2	7	12
1276	19	4	2	14
1277	20	1	9	10
1278	25	4	0	7
1279	19	2	1	0
1280	24	0	3	8
1281	19	1	1	10
1282	20	4	8	13
1283	22	1	6	8
1284	26	1	8	3
1285	22	2	8	5
1286	17	0	5	11
1287	21	0	6	13
1288	15	4	8	11
1289	18	1	8	3
1290	25	3	2	1
1291	19	1	1	16
1292	26	0	7	4
1293	18	4	4	16
1294	25	3	9	2
1295	25	3	9	18
1296	22	2	6	12
1297	16	2	3	4
1298	20	0	2	11
1299	16	3	7	3
1300	18	2	0	17
1301	24	3	3	16
1302	13	2	1	8
1303	22	0	0	17
1304	21	4	4	15
1305	19	2	0	10
1306	19	4	9	6
1307	21	2	8	6
1308	22	4	8	18
1309	20	1	7	1
1310	18	1	0	3
1311	25	1	8	15
1312	24	0	9	6
1313	16	4	2	19
1314	26	3	2	11
1315	24	2	7	10
1316	17	1	1	2
1317	27	2	0	4
1318	14	0	2	17
1319	16	1	9	16
1320	15	3	3	0
1321	25	0	8	14
1322	17	4	8	3
1323	24	4	6	7
1324	27	0	3	1
1325	28	0	8	8
1326	23	4	1	17
1327	28	1	6	0
1328	30	0	7	5
1329	15	3	7	5
1330	16	3	3	14
1331	20	2	5	5
1332	16	2	5	17
1333	18	4	1	14
1334	20	2	0	8
1335	20	2	9	3
1336	15	2	0	10
1337	23	2	9	8
1338	21	3	0	3
1339	26	2	8	4
1340	20	2	8	1
1341	19	4	4	10
1342	22	2	6	4
1343	22	3	5	9
1344	13	1	5	9
1345	20	1	3	5
1346	26	2	6	10
1347	15	0	3	17
1348	19	0	1	14
1349	17	1	0	18
1350	16	4	5	15
1351	17	3	0	15
1352	25	4	1	10
1353	14	1	2	18
1354	23	3	7	5
1355	30	2	6	13
1356	13	1	3	5
1357	21	1	9	9
1358	18	0	8	13
1359	12	4	1	0
1360	20	2	0	10
1361	16	4	7	19
1362	18	2	2	3
1363	16	4	6	8
1364	21	0	4	15
1365	26	3	3	15
1366	29	1	1	3
1367	15	2	0	6
1368	17	3	2	17
1369	15	1	1	16
1370	21	3	1	4
1371	21	2	2	4
1372	25	0	0	10
1373	22	4	8	11
1374	15	2	4	14
1375	20	0	9	6
1376	13	3	4	13
1377	15	4	5	18
1378	21	1	2	3
1379	21	1	0	13
1380	16	1	8	10
1381	15	3	1	7
1382	22	4	3	16
1383	19	1	0	7
1384	29	2	0	2
1385	23	2	4	16
1386	17	0	0	6
1387	20	0	6	3
1388	17	1	0	10
1389	16	2	3	16
1390	18	3	8	6
1391	16	1	4	16
1392	27	1	6	9
1393	16	2	6	4
1394	26	3	1	16
1395	16	4	9	2
1396	26	2	6	12
1397	14	3	7	12
1398	30	1	9	6
1399	23	4	6	15
1400	15	4	7	19
1401	19	0	8	0
1402	24	2	2	14
1403	18	0	0	1
1404	26	4	2	17
1405	19	1	5	0
1406	21	3	6	1
1407	17	4	0	11
1408	29	2	5	1
1409	17	0	8	10
1410	21	0	0	7
1411	22	2	0	2
1412	28	2	1	5
1413	21	4	9	18
1414	27	4	4	0
1415	21	1	1	5
1416	19	1	3	2
1417	24	1	8	4
1418	14	3	3	15
1419	27	0	0	10
1420	18	4	2	4
1421	18	3	7	11
1422	15	3	6	15
1423	20	0	4	10
1424	24	2	8	7
1425	13	2	8	5
1426	25	4	2	11
1427	23	4	4	11
1428	31	2	3	19
1429	19	2	0	14
1430	19	1	8	14
1431	26	4	0	18
1432	15	1	6	13
1433	25	0	4	19
1434	20	1	8	3
1435	13	3	4	1
1436	28	1	0	3
1437	23	4	5	16
1438	21	3	4	12
1439	20	0	4	14
1440	21	0	5	14
1441	15	4	4	12
1442	18	1	0	1
1443	19	1	9	6
1444	21	4	6	0
1445	12	3	1	0
1446	28	3	4	1
1447	18	1	5	6
1448	22	4	6	0
1449	18	1	6	4
1450	21	2	5	5
1451	21	3	0	7
1452	27	2	5	17
1453	19	4	0	8
1454	15	3	1	4
1455	24	4	4	12
1456	19	1	3	13
1457	25	3	3	13
1458	18	4	9	11
1459	23	1	2	17
1460	25	1	8	13
1461	26	3	4	13
1462	16	2	4	16
1463	19	0	4	8
1464	17	3	8	3
1465	19	0	0	7
1466	22	3	5	16
1467	22	2	8	13
1468	25	4	0	10
1469	23	2	5	0
1470	19	3	4	2
1471	17	1	6	11
1472	18	0	0	18
1473	19	3	1	12
1474	16	1	1	1
1475	24	3	3	9
1476	19	1	0	9
1477	24	3	8	18
1478	18	2	6	18
1479	16	2	4	18
1480	19	1	3	5
1481	30	0	4	3
1482	15	3	3	1
1483	26	2	0	7
1484	18	0	4	15
1485	13	0	2	13
1486	17	0	3	7
1487	18	3	7	4
1488	23	2	6	6
1489	23	4	6	6
1490	21	2	8	12
1491	18	3	1	19
1492	14	1	5	14
1493	26	2	7	12
1494	18	0	6	8
1495	24	3	2	14
1496	19	2	2	3
1497	19	2	7	6
1498	20	1	3	8
1499	19	1	9	18
1500	19	4	9	16
1501	28	1	6	4
1502	13	3	8	17
1503	15	3	0	13
1504	23	2	0	10
1505	25	3	6	3
1506	15	1	9	18
1507	17	3	3	19
1508	15	1	6	5
1509	15	0	0	4
1510	19	4	6	11
1511	24	3	9	19
1512	14	1	1	15
1513	22	1	0	10
1514	17	3	9	4
1515	13	3	9	2
1516	24	2	2	13
1517	32	4	9	18
1518	19	2	7	5
1519	15	4	3	14
1520	12	1	5	6
1521	24	3	0	17
1522	25	2	3	0
1523	14	3	9	10
1524	20	1	6	12
1525	21	3	4	4
1526	13	3	3	2
1527	21	2	7	1
1528	25	1	8	5
1529	21	0	4	19
1530	22	2	5	3
1531	19	1	0	4
1532	9	1	8	12
1533	20	1	2	2
1534	28	2	8	13
1535	17	4	4	1
1536	13	1	5	12
1537	29	3	3	12
1538	23	4	5	10
1539	24	2	9	6
1540	27	2	3	3
1541	18	2	3	17
1542	22	3	3	0
1543	17	4	3	15
1544	26	4	3	15
1545	16	2	1	9
1546	26	4	9	3
1547	26	3	7	15
1548	18	3	2	4
1549	21	0	7	9
1550	30	1	4	11
1551	26	4	0	8
1552	20	0	2	5
1553	20	3	1	12
1554	26	1	5	7
1555	22	1	2	4
1556	13	2	1	11
1557	20	0	9	11
1558	18	0	1	1
1559	18	4	1	14
1560	20	0	6	6
1561	21	0	2	8
1562	20	1	0	4
1563	21	2	2	7
1564	18	2	3	11
1565	25	3	6	11
1566	23	0	7	12
1567	20	4	4	7
1568	21	2	1	8
1569	28	2	6	13
1570	17	4	6	10
1571	17	2	1	13
1572	21	4	2	16
1573	20	0	4	5
1574	27	0	5	9
1575	17	1	3	4
1576	24	2	2	6
1577	27	1	9	7
1578	20	0	7	0
1579	18	4	0	12
1580	12	4	1	17
1581	23	2	3	16
1582	16	1	6	4
1583	18	1	5	17
1584	17	2	8	16
1585	14	2	9	16
1586	19	0	9	18
1587	20	2	4	2
1588	20	4	2	3
1589	14	0	6	13
1590	21	0	7	13
1591	20	3	9	17
1592	33	4	5	10
1593	19	4	2	17
1594	23	2	2	19
1595	21	4	6	16
1596	22	0	5	9
1597	25	0	8	9
1598	10	4	0	3
1599	23	0	8	9
1600	26	4	1	8
1601	20	4	1	14
1602	16	3	5	7
1603	22	1	5	4
1604	24	3	4	1
1605	18	0	7	16
1606	21	2	9	17
1607	15	1	2	9
1608	11	4	3	9
1609	24	3	7	10
1610	30	3	7	5
1611	20	1	4	0
1612	34	2	3	18
1613	20	3	1	9
1614	14	4	7	6
1615	24	0	4	19
1616	20	1	5	6
1617	20	4	8	12
1618	25	0	1	18
1619	20	0	7	9
1620	15	0	0	9
1621	24	0	2	16
1622	29	0	7	17
1623	18	2	6	18
1624	15	1	4	6
1625	29	2	5	7
1626	16	4	8	19
1627	16	2	9	6
1628	19	3	5	13
1629	27	3	9	3
1630	28	0	1	19
1631	18	0	2	15
1632	16	3	8	13
1633	22	1	7	17
1634	15	1	0	2
1635	13	0	4	5
1636	23	3	3	14
1637	25	1	2	6
1638	18	0	6	14
1639	23	1	6	11
1640	18	1	9	2
1641	28	2	7	8
1642	26	4	0	10
1643	20	4	9	11
1644	20	2	2	1
1645	24	0	4	12
1646	18	1	3	0
1647	25	1	3	14
1648	22	2	6	19
1649	20	2	7	15
1650	18	3	8	10
1651	22	1	7	13
1652	21	0	2	1
1653	29	3	6	7
1654	17	2	6	8
1655	14	3	6	17
1656	10	3	2	15
1657	22	0	9	2
1658	19	3	9	18
1659	14	0	1	13
1660	28	4	8	8
1661	18	3	7	5
1662	20	4	6	0
1663	23	1	1	19
1664	21	4	2	10
1665	20	3	3	8
1666	20	0	1	1
1667	16	1	5	2
1668	24	1	1	0
1669	17	0	3	8
1670	21	4	2	18
1671	18	2	5	10
1672	31	2	0	19
1673	25	2	0	19
1674	23	2	7	19
1675	24	3	9	7
1676	20	2	1	14
1677	24	2	9	15
1678	19	4	5	17
1679	19	3	8	15
1680	18	0	3	1
1681	17	1	5	13
1682	13	0	0	8
1683	21	4	2	10
1684	20	2	1	11
1685	27	4	4	1
1686	20	4	6	10
1687	28	0	8	16
1688	18	4	5	4
1689	19	2	7	16
1690	23	1	3	0
1691	23	1	4	13
1692	23	1	8	10
1693	21	4	1	5
1694	15	3	8	2
1695	16	0	8	16
1696	27	1	8	11
1697	17	2	8	17
1698	19	1	6	4
1699	23	2	5	14
1700	20	3	5	19
1701	17	2	8	3
1702	29	3	1	3
1703	24	1	2	9
1704	17	0	9	12
1705	20	4	4	1
1706	22	0	6	6
1707	27	0	3	19
1708	21	1	4	4
1709	28	3	7	1
1710	18	0	7	9
1711	17	1	7	18
1712	30	0	2	8
1713	21	3	0	0
1714	18	0	6	10
1715	26	2	8	12
1716	23	0	2	2
1717	19	0	6	1
1718	12	3	4	14
1719	13	4	2	16
1720	23	0	4	18
1721	18	1	3	10
1722	20	2	8	7
1723	16	1	7	8
1724	13	0	0	10
1725	20	1	1	14
1726	19	1	5	12
1727	23	1	2	14
1728	20	0	2	13
1729	28	0	2	14
1730	15	1	6	19
1731	19	1	4	14
1732	15	0	5	9
1733	22	4	1	18
1734	20	2	3	7
1735	17	2	6	6
1736	20	1	4	2
1737	20	0	3	8
1738	12	2	0	1
1739	31	4	2	2
1740	24	2	4	9
1741	19	3	2	17
1742	20	3	2	4
1743	19	3	5	17
1744	19	3	3	6
1745	26	3	0	6
1746	17	3	1	1
1747	16	4	6	3
1748	20	3	6	10
1749	25	4	3	12
1750	16	2	0	1
1751	23	4	5	5
1752	16	2	2	7
1753	26	4	9	9
1754	21	0	8	17
1755	18	2	0	0
1756	25	1	5	13
1757	25	0	3	14
1758	21	4	8	4
1759	16	1	8	13
1760	21	3	0	6
1761	11	2	7	18
1762	17	4	5	10
1763	16	2	8	2
1764	23	2	9	18
1765	20	4	7	16
1766	27	3	6	10
1767	9	4	5	8
1768	19	1	8	12
1769	20	1	1	15
1770	22	2	2	14
1771	24	1	9	16
1772	21	1	2	17
1773	17	1	7	2
1774	16	3	4	8
1775	28	3	5	8
1776	14	1	7	4
1777	20	0	8	15
1778	13	3	7	7
1779	17	2	2	17
1780	22	3	7	4
1781	15	4	3	17
1782	22	1	6	6
1783	15	3	5	0
1784	20	0	0	7
1785	27	1	8	9
1786	24	2	0	2
1787	26	3	2	4
1788	26	1	5	15
1789	17	0	1	8
1790	22	2	4	7
1791	19	4	6	8
1792	21	1	1	9
1793	24	3	8	6
1794	14	3	8	0
1795	20	3	4	9
1796	18	4	6	1
1797	24	1	3	14
1798	21	1	4	9
1799	17	1	6	10
1800	16	3	7	5
1801	13	1	2	2
1802	25	2	5	13
1803	21	4	5	0
1804	14	1	4	7
1805	21	0	8	4
1806	20	0	1	10
1807	16	1	4	13
1808	25	3	8	8
1809	15	4	4	10
1810	13	1	4	19
1811	24	4	7	6
1812	21	0	7	19
1813	19	4	9	15
1814	22	1	1	15
1815	26	3	3	2
1816	25	4	8	16
1817	24	3	9	1
1818	22	2	8	18
1819	19	4	0	7
1820	20	0	5	11
1821	16	1	6	0
1822	25	0	3	8
1823	28	4	2	18
1824	20	2	5	4
1825	21	3	7	5
1826	13	2	1	3
1827	21	2	7	1
1828	21	1	1	17
1829	22	3	2	8
1830	16	4	1	8
1831	22	3	1	3
1832	26	0	6	13
1833	25	2	3	6
1834	20	3	6	17
1835	28	3	5	1
1836	21	0	3	17
1837	29	2	1	13
1838	25	2	3	13
1839	19	3	0	11
1840	11	1	7	3
1841	12	3	4	15
1842	12	1	6	15
1843	21	2	4	4
1844	18	2	5	2
1845	22	4	2	14
1846	25	3	9	2
1847	11	2	9	14
1848	23	3	7	8
1849	16	2	8	11
1850	16	4	0	9
1851	22	3	3	0
1852	24	0	8	17
1853	27	1	5	11
1854	14	3	1	13
1855	13	0	2	2
1856	21	0	4	0
1857	20	2	7	19
1858	18	3	0	0
1859	19	0	5	18
1860	17	3	1	0
1861	18	1	4	1
1862	13	4	5	3
1863	9	3	6	3
1864	32	2	3	19
1865	19	1	6	16
1866	18	3	5	2
1867	20	3	6	10
1868	16	4	6	14
1869	15	0	8	18
1870	22	2	7	14
1871	28	2	5	1
1872	23	1	9	14
1873	14	1	8	17
1874	28	2	9	6
1875	25	0	3	7
1876	18	2	7	19
1877	25	0	3	13
1878	14	3	2	7
1879	17	1	3	1
1880	20	3	3	17
1881	15	2	4	15
1882	21	1	0	11
1883	21	1	7	0
1884	23	3	9	17
1885	14	4	0	13
1886	15	2	4	16
1887	18	1	1	15
1888	20	1	2	2
1889	22	4	7	9
1890	17	3	5	5
1891	19	0	8	18
1892	26	4	8	7
1893	21	4	3	16
1894	15	0	9	2
1895	18	4	7	4
1896	16	2	4	17
1897	13	4	7	0
1898	23	4	8	9
1899	20	1	8	14
1900	27	3	6	12
1901	19	2	5	3
1902	21	4	3	19
1903	20	4	5	11
1904	22	0	1	5
1905	20	3	0	18
1906	19	3	0	18
1907	23	0	1	7
1908	20	4	0	13
1909	11	2	0	7
1910	19	3	5	9
1911	19	2	2	1
1912	13	4	7	0
1913	22	0	9	7
1914	23	1	2	3
1915	20	4	0	16
1916	21	0	1	9
1917	14	1	9	1
1918	28	4	5	14
1919	28	3	7	14
1920	19	1	8	5
1921	20	3	4	7
1922	23	0	0	8
1923	32	1	6	17
1924	21	2	2	13
1925	20	4	2	18
1926	18	2	8	3
1927	21	0	6	0
1928	20	2	0	6
1929	24	2	6	7
1930	25	1	5	17
1931	22	0	0	15
1932	23	0	4	18
1933	21	0	1	14
1934	12	2	2	15
1935	19	3	6	18
1936	12	2	9	2
1937	12	3	7	16
1938	13	1	1	4
1939	20	2	7	3
1940	22	1	4	13
1941	24	1	3	1
1942	22	1	7	15
1943	19	1	7	18
1944	23	3	0	11
1945	18	2	6	3
1946	15	4	6	2
1947	23	4	8	19
1948	22	2	1	1
1949	10	4	0	5
1950	20	0	6	5
1951	23	4	1	5
1952	17	2	5	5
1953	27	4	4	10
1954	20	4	8	6
1955	18	1	5	16
1956	19	2	3	15
1957	19	0	7	9
1958	16	2	5	16
1959	21	0	2	11
1960	18	0	1	18
1961	16	3	3	18
1962	19	0	8	0
1963	17	1	6	8
1964	17	0	5	14
1965	20	4	6	7
1966	17	4	6	18
1967	21	2	5	6
1968	18	1	5	7
1969	18	0	9	0
1970	18	2	1	11
1971	31	4	2	5
1972	14	0	0	9
1973	22	3	3	19
1974	15	3	0	18
1975	23	0	8	16
1976	24	1	3	17
1977	23	4	2	2
1978	19	3	2	7
1979	28	0	1	17
1980	27	1	8	12
1981	22	0	7	16
1982	20	3	9	12
1983	20	2	1	0
1984	22	4	6	10
1985	24	3	5	19
1986	31	0	1	4
1987	19	2	3	13
1988	24	3	2	17
1989	21	0	7	9
1990	8	4	2	18
1991	21	3	4	12
1992	18	3	9	7
1993	17	0	4	8
1994	22	4	9	11
1995	25	2	0	19
1996	22	2	4	10
1997	14	1	0	7
1998	22	0	4	9
1999	26	4	6	18
