0	5	3	0	1
1	2	1	5	19
2	5	3	2	4
3	4	4	4	4
4	4	3	1	7
5	4	4	9	14
6	5	3	9	8
7	4	0	5	8
8	2	3	3	3
9	3	3	9	1
10	7	2	0	2
11	5	3	9	9
12	5	1	1	2
13	7	3	8	3
14	3	2	6	18
15	5	0	3	18
16	9	0	2	16
17	9	3	8	15
18	4	1	6	18
19	3	0	6	7
20	7	0	3	16
21	4	1	5	8
22	8	0	7	15
23	4	1	4	2
24	4	1	4	8
25	3	4	5	7
26	5	1	6	12
27	3	3	3	14
28	3	0	2	10
29	3	0	3	4
30	2	4	4	17
31	7	4	7	14
32	6	2	0	0
33	5	1	3	12
34	3	0	4	3
35	8	1	0	13
36	2	2	3	2
37	6	1	4	2
38	4	3	0	0
39	7	3	7	12
40	4	3	9	6
41	1	4	4	4
42	4	3	1	5
43	10	3	4	17
44	10	2	1	3
45	3	3	6	5
46	7	4	7	15
47	3	2	2	19
48	5	0	6	17
49	5	2	2	11
50	4	0	0	17
51	9	0	8	0
52	7	2	0	3
53	4	2	2	2
54	4	3	5	4
55	8	1	0	0
56	5	0	3	3
57	7	3	3	7
58	6	3	0	1
59	4	3	9	12
60	8	4	7	4
61	11	2	1	8
62	4	4	5	5
63	6	3	9	18
64	6	1	6	16
65	8	3	5	4
66	8	0	2	5
67	6	2	9	5
68	3	4	4	15
69	5	0	3	15
70	8	2	9	17
71	7	4	1	8
72	3	2	6	7
73	5	3	5	1
74	4	0	4	18
75	3	0	9	0
76	6	1	2	11
77	4	4	9	10
78	5	4	7	2
79	5	4	2	15
80	5	3	9	1
81	8	4	2	11
82	9	2	4	12
83	5	2	2	13
84	6	4	3	13
85	5	3	0	4
86	5	0	4	2
87	10	3	4	7
88	4	4	7	15
89	7	0	6	6
90	2	1	4	11
91	9	0	9	14
92	3	4	4	2
93	5	2	8	12
94	3	1	8	7
95	9	3	2	1
96	3	3	4	15
97	2	1	5	8
98	4	2	2	2
99	9	2	5	14
100	4	0	9	8
101	10	1	9	13
102	4	4	5	3
103	6	0	4	3
104	3	2	6	1
105	6	0	8	6
106	3	1	1	9
107	5	4	9	2
108	5	2	4	12
109	6	0	0	16
110	6	1	6	7
111	3	2	1	0
112	5	3	7	6
113	5	0	1	19
114	7	2	6	8
115	8	1	7	8
116	7	1	7	4
117	9	3	1	9
118	16	0	7	12
119	4	0	2	14
120	8	3	6	8
121	3	1	1	14
122	4	0	7	19
123	3	4	5	13
124	4	0	4	11
125	5	4	6	12
126	5	1	4	8
127	3	1	7	11
128	10	4	9	11
129	7	3	4	9
130	5	1	4	11
131	10	0	5	8
132	3	3	0	2
133	2	0	7	13
134	7	2	2	0
135	10	3	1	4
136	5	2	6	6
137	3	0	9	5
138	9	0	6	7
139	5	4	6	13
140	3	1	2	13
141	7	0	2	8
142	3	1	4	8
143	8	3	3	8
144	6	0	8	14
145	3	2	5	15
146	5	0	5	0
147	4	2	5	14
148	3	1	0	17
149	4	3	8	8
150	5	1	2	4
151	4	4	5	1
152	5	1	9	15
153	3	4	2	2
154	4	1	6	10
155	4	4	9	16
156	1	1	3	14
157	5	3	3	0
158	7	0	9	16
159	5	2	7	2
160	2	1	2	16
161	5	1	4	7
162	4	1	9	6
163	6	1	7	12
164	4	0	5	12
165	4	0	5	2
166	3	4	0	12
167	5	1	3	16
168	8	2	7	6
169	3	3	3	13
170	6	0	4	19
171	10	4	3	0
172	5	4	3	2
173	4	1	6	14
174	8	3	7	3
175	5	3	0	7
176	5	4	6	11
177	5	1	9	10
178	7	2	9	7
179	4	1	3	7
180	4	1	0	10
181	2	0	9	18
182	4	1	3	5
183	8	1	9	7
184	3	2	3	16
185	4	4	2	16
186	3	3	8	0
187	4	4	8	15
188	4	1	4	6
189	6	2	4	14
190	5	1	6	1
191	5	1	0	1
192	4	2	9	5
193	2	0	2	1
194	3	1	8	9
195	9	3	7	18
196	7	4	3	16
197	3	2	3	6
198	2	0	9	8
199	3	2	4	18
200	5	2	6	15
201	9	4	8	19
202	4	2	5	4
203	4	0	8	19
204	4	2	7	1
205	5	4	1	4
206	7	2	1	1
207	7	0	8	8
208	8	0	1	0
209	3	3	2	2
210	6	4	5	6
211	6	0	5	3
212	2	1	2	9
213	8	0	7	1
214	4	4	5	5
215	8	3	3	13
216	7	1	5	12
217	7	4	9	9
218	3	3	0	10
219	3	2	3	5
220	5	3	8	0
221	8	3	0	11
222	5	4	7	3
223	5	3	0	10
224	5	2	1	12
225	6	1	2	4
226	6	2	4	6
227	1	3	0	18
228	4	4	8	16
229	4	3	4	18
230	5	2	6	18
231	3	0	7	19
232	7	3	0	8
233	7	0	0	11
234	4	3	7	3
235	3	2	9	19
236	4	0	2	12
237	5	0	5	1
238	4	1	6	2
239	7	4	9	4
240	4	4	0	3
241	7	0	3	1
242	8	2	6	17
243	5	3	8	12
244	11	1	3	12
245	5	4	4	4
246	5	0	1	15
247	6	3	6	1
248	1	0	1	9
249	7	2	7	3
250	5	2	0	2
251	6	2	7	4
252	3	1	0	7
253	4	4	2	4
254	8	0	1	17
255	5	2	2	12
256	5	4	1	5
257	8	4	3	18
258	4	3	9	14
259	4	0	5	19
260	3	4	7	13
261	3	2	7	13
262	4	2	9	1
263	7	3	0	11
264	6	3	3	14
265	4	3	6	13
266	4	4	7	5
267	4	2	3	0
268	4	3	6	2
269	5	4	6	6
270	7	2	3	17
271	4	3	6	12
272	4	1	8	13
273	5	3	4	0
274	4	3	8	0
275	3	1	3	2
276	6	4	3	6
277	5	4	7	9
278	2	0	2	16
279	2	1	4	9
280	9	1	1	8
281	3	0	1	16
282	4	2	2	2
283	4	0	3	4
284	4	2	3	10
285	4	2	4	9
286	3	4	9	11
287	3	4	1	15
288	3	4	5	0
289	6	4	3	15
290	6	1	5	7
291	2	2	3	12
292	5	2	9	1
293	4	3	8	8
294	4	4	4	15
295	5	1	0	16
296	4	3	4	1
297	6	2	1	17
298	11	0	4	4
299	5	0	1	11
300	5	0	9	5
301	4	3	4	0
302	5	2	9	16
303	4	4	6	0
304	8	1	4	10
305	9	2	3	9
306	7	1	9	16
307	5	1	5	2
308	6	0	2	6
309	7	3	5	5
310	5	2	2	17
311	5	1	7	18
312	5	4	8	13
313	4	2	4	9
314	2	0	9	4
315	4	0	7	18
316	7	2	2	19
317	2	4	4	9
318	4	4	6	6
319	5	4	6	3
320	3	3	6	15
321	3	3	9	6
322	5	1	0	9
323	5	4	2	15
324	3	2	0	16
325	4	0	6	7
326	10	4	6	17
327	7	4	9	5
328	8	4	0	16
329	5	2	5	13
330	7	4	2	13
331	4	2	2	16
332	3	0	4	8
333	3	1	7	19
334	4	0	6	1
335	5	3	1	3
336	5	3	6	5
337	3	1	7	12
338	8	0	1	12
339	5	2	1	13
340	5	1	9	2
341	2	1	9	4
342	8	1	7	8
343	9	3	3	19
344	4	2	8	13
345	4	0	3	4
346	5	1	8	5
347	2	1	5	0
348	5	4	0	12
349	5	1	0	13
350	5	0	3	0
351	1	0	6	9
352	6	3	8	0
353	4	2	8	10
354	3	4	5	15
355	4	4	4	10
356	6	2	6	14
357	4	2	4	10
358	10	3	1	19
359	7	0	3	17
360	9	1	2	1
361	7	1	3	11
362	4	0	4	16
363	4	3	0	1
364	2	1	6	6
365	5	2	1	6
366	6	3	8	5
367	5	3	8	17
368	5	2	8	2
369	6	0	4	14
370	4	0	0	13
371	3	3	5	5
372	6	0	5	3
373	8	0	9	2
374	9	4	7	10
375	2	0	1	6
376	3	0	6	3
377	6	4	2	4
378	8	3	4	0
379	6	4	6	8
380	11	1	1	2
381	4	0	8	9
382	3	4	5	19
383	3	0	1	17
384	4	3	9	3
385	4	0	3	14
386	4	2	3	8
387	5	2	0	17
388	2	4	3	13
389	6	0	4	9
390	4	2	4	0
391	6	4	7	7
392	5	2	7	2
393	2	2	6	18
394	7	2	9	11
395	8	3	8	9
396	3	2	3	2
397	5	3	7	17
398	7	2	2	10
399	4	4	1	2
400	7	0	7	17
401	4	3	1	6
402	6	3	4	17
403	7	2	2	19
404	6	0	6	1
405	8	0	2	12
406	6	1	3	16
407	3	3	7	17
408	5	1	4	13
409	6	0	5	18
410	4	4	0	5
411	5	2	7	7
412	3	3	9	6
413	5	0	2	11
414	5	0	1	11
415	4	0	1	6
416	6	4	0	4
417	5	4	0	9
418	4	3	1	14
419	4	4	7	3
420	2	0	6	1
421	8	1	9	7
422	10	3	8	10
423	3	4	7	17
424	11	2	3	14
425	3	1	7	12
426	6	4	5	8
427	3	1	6	2
428	6	3	2	7
429	1	4	7	1
430	5	3	7	0
431	7	3	3	12
432	8	0	2	3
433	4	2	7	5
434	7	1	1	14
435	6	2	5	6
436	5	0	8	18
437	4	1	8	9
438	3	3	2	14
439	7	0	7	18
440	3	2	1	0
441	6	2	5	12
442	4	3	8	3
443	3	4	2	7
444	5	4	3	3
445	7	2	6	8
446	4	4	8	6
447	5	1	9	2
448	4	3	6	14
449	8	3	5	5
450	3	2	2	10
451	3	1	8	5
452	8	0	0	3
453	7	1	0	3
454	7	3	9	14
455	8	1	6	14
456	3	4	6	4
457	5	2	9	9
458	2	2	7	6
459	4	2	1	5
460	6	0	9	11
461	5	1	1	0
462	2	1	1	10
463	5	2	7	4
464	6	2	1	6
465	5	2	0	8
466	8	3	8	13
467	2	2	7	9
468	6	3	9	4
469	8	3	5	13
470	3	0	9	17
471	3	1	2	10
472	2	3	7	3
473	4	1	8	3
474	6	3	5	17
475	4	4	7	12
476	5	3	5	11
477	3	4	3	14
478	5	0	9	4
479	7	4	6	11
480	5	1	8	1
481	6	1	8	16
482	1	0	8	5
483	6	4	1	6
484	6	3	9	11
485	7	4	3	2
486	3	4	4	7
487	3	4	9	6
488	4	0	7	2
489	6	3	4	10
490	7	1	7	0
491	8	1	9	10
492	1	1	4	17
493	3	4	3	12
494	4	4	2	2
495	6	0	2	1
496	10	3	8	18
497	8	0	5	0
498	8	1	6	14
499	16	4	2	6
