0	6	0	573	6	14
1	5	4	461	5	18
2	5	0	615	5	17
3	6	2	906	0	15
4	3	1	370	1	4
5	5	4	1130	3	4
6	9	1	1113	2	6
7	16	3	780	2	14
8	3	3	349	0	10
9	11	0	433	0	19
10	3	0	248	0	19
11	3	0	812	9	7
12	7	4	1290	2	7
13	3	1	582	7	0
14	3	4	835	3	4
15	6	1	546	5	4
16	1	1	1035	9	2
17	3	2	410	0	1
18	6	3	90	6	14
19	3	2	267	4	8
20	3	1	162	2	1
21	3	2	864	5	0
22	4	0	1032	8	9
23	5	4	2556	3	14
24	3	1	520	1	11
25	3	2	382	3	12
26	8	1	881	1	16
27	4	1	200	9	4
28	44	2	551	0	12
29	6	0	832	6	2
30	11	2	724	9	17
31	10	3	277	9	0
32	1	0	220	8	9
33	5	0	1132	9	12
34	4	4	1255	2	4
35	3	1	372	7	9
36	6	1	686	4	14
37	5	4	737	4	18
38	3	1	864	7	4
39	12	2	1657	9	18
40	6	4	380	7	0
41	3	0	1220	3	12
42	48	3	648	2	16
43	2	4	263	4	2
44	4	0	1356	3	3
45	1	3	627	7	0
46	10	3	2442	9	4
47	3	0	914	9	5
48	3	2	284	6	19
49	4	1	496	4	2
50	3	2	140	9	5
51	4	2	1242	0	16
52	3	2	233	8	18
53	7	0	427	7	6
54	9	4	2843	6	12
55	15	1	186	4	13
56	3	0	1338	8	11
57	3	3	772	1	14
58	14	4	184	5	19
59	5	2	784	9	10
60	3	0	942	5	17
61	3	0	385	2	0
62	7	2	1382	7	8
63	19	3	705	2	7
64	11	4	1141	7	19
65	4	4	404	9	13
66	7	0	317	5	10
67	3	3	1074	9	18
68	4	4	435	9	14
69	4	3	745	6	8
70	14	3	480	2	2
71	67	1	595	5	19
72	4	3	202	8	0
73	5	4	431	8	18
74	5	3	336	8	2
75	5	0	158	1	10
76	11	3	2261	7	4
77	4	3	894	5	0
78	8	2	920	5	12
79	6	2	750	8	14
80	3	3	566	1	13
81	3	3	581	1	13
82	5	2	756	1	18
83	5	4	503	3	0
84	4	0	101	1	15
85	5	1	697	4	6
86	3	1	355	4	8
87	3	4	657	7	10
88	3	1	2639	4	13
89	10	1	393	4	13
90	4	1	345	4	9
91	6	2	478	4	9
92	29	4	450	3	11
93	3	3	1014	0	6
94	2	1	2701	1	16
95	2	1	332	1	17
96	1	1	646	0	11
97	2	4	574	7	2
98	3	3	742	3	4
99	6	3	473	7	15
