0	6	0	573	6	14
1	5	4	461	5	18
2	5	0	615	5	17
3	6	2	906	0	15
4	3	1	370	1	4
5	5	4	1130	3	4
6	9	1	1113	2	6
7	16	3	780	2	14
8	3	3	349	0	10
9	11	0	433	0	19
10	3	0	248	0	19
11	3	0	812	9	7
12	7	4	1290	2	7
13	3	1	582	7	0
14	3	4	835	3	4
15	6	1	546	5	4
16	1	1	1035	9	2
17	3	2	410	0	1
18	6	3	90	6	14
19	3	2	267	4	8
20	3	1	162	2	1
21	3	2	864	5	0
22	4	0	1032	8	9
23	5	4	2556	3	14
24	3	1	520	1	11
25	3	2	382	3	12
26	8	1	881	1	16
27	4	1	200	9	4
28	44	2	551	0	12
29	6	0	832	6	2
30	11	2	724	9	17
31	10	3	277	9	0
32	1	0	220	8	9
33	5	0	1132	9	12
34	4	4	1255	2	4
35	3	1	372	7	9
36	6	1	686	4	14
37	5	4	737	4	18
38	3	1	864	7	4
39	12	2	1657	9	18
40	6	4	380	7	0
41	3	0	1220	3	12
42	48	3	648	2	16
43	2	4	263	4	2
44	4	0	1356	3	3
45	1	3	627	7	0
46	10	3	2442	9	4
47	3	0	914	9	5
48	3	2	284	6	19
49	4	1	496	4	2
50	3	2	140	9	5
51	4	2	1242	0	16
52	3	2	233	8	18
53	7	0	427	7	6
54	9	4	2843	6	12
55	15	1	186	4	13
56	3	0	1338	8	11
57	3	3	772	1	14
58	14	4	184	5	19
59	5	2	784	9	10
60	3	0	942	5	17
61	3	0	385	2	0
62	7	2	1382	7	8
63	19	3	705	2	7
64	11	4	1141	7	19
65	4	4	404	9	13
66	7	0	317	5	10
67	3	3	1074	9	18
68	4	4	435	9	14
69	4	3	745	6	8
70	14	3	480	2	2
71	67	1	595	5	19
72	4	3	202	8	0
73	5	4	431	8	18
74	5	3	336	8	2
75	5	0	158	1	10
76	11	3	2261	7	4
77	4	3	894	5	0
78	8	2	920	5	12
79	6	2	750	8	14
80	3	3	566	1	13
81	3	3	581	1	13
82	5	2	756	1	18
83	5	4	503	3	0
84	4	0	101	1	15
85	5	1	697	4	6
86	3	1	355	4	8
87	3	4	657	7	10
88	3	1	2639	4	13
89	10	1	393	4	13
90	4	1	345	4	9
91	6	2	478	4	9
92	29	4	450	3	11
93	3	3	1014	0	6
94	2	1	2701	1	16
95	2	1	332	1	17
96	1	1	646	0	11
97	2	4	574	7	2
98	3	3	742	3	4
99	6	3	473	7	15
100	32	3	969	5	10
101	8	1	178	4	8
102	14	0	295	7	17
103	3	3	288	0	4
104	3	3	1356	9	0
105	9	1	1009	5	0
106	3	0	1374	4	4
107	3	0	186	5	11
108	4	4	359	3	3
109	5	0	767	9	4
110	9	3	556	5	1
111	3	0	976	9	8
112	3	0	415	9	7
113	5	2	207	2	2
114	4	2	454	3	6
115	4	3	399	9	3
116	4	3	95	7	5
117	2	3	673	6	2
118	11	3	770	1	19
119	101	3	536	6	11
120	8	1	528	3	2
121	4	0	524	3	12
122	3	3	1544	4	6
123	3	3	304	4	16
124	8	2	595	1	2
125	3	4	391	1	16
126	11	2	781	8	12
127	3	4	1333	0	14
128	3	0	1112	5	2
129	6	4	1441	9	17
130	48	3	245	5	10
131	3	1	561	1	14
132	21	1	360	7	8
133	7	4	403	0	12
134	4	3	496	4	5
135	9	3	537	7	9
136	4	0	377	5	15
137	6	3	496	4	1
138	6	3	206	8	10
139	4	0	92	2	11
140	12	1	377	4	13
141	5	3	817	5	12
142	3	4	393	7	8
143	3	2	1038	3	14
144	6	4	360	4	10
145	3	3	429	4	18
146	3	3	757	3	0
147	3	3	143	0	12
148	3	0	413	1	0
149	18	3	391	7	3
150	19	2	439	7	0
151	9	0	100	9	1
152	4	1	785	7	19
153	3	2	313	8	9
154	3	0	743	5	10
155	6	0	217	9	6
156	4	1	505	4	4
157	5	0	292	6	6
158	3	0	1591	6	5
159	3	1	673	4	12
160	5	2	758	1	1
161	6	0	738	9	18
162	2	1	1585	8	3
163	1	4	184	8	1
164	4	1	400	1	18
165	6	4	1106	5	7
166	5	0	331	4	5
167	4	3	656	3	1
168	3	0	529	5	1
169	4	3	446	4	15
170	5	4	381	6	10
171	4	0	444	3	13
172	10	1	2414	0	0
173	3	3	330	6	9
174	13	2	676	6	10
175	3	2	361	7	11
176	4	3	283	8	2
177	7	2	735	8	9
178	2	2	295	8	10
179	25	1	193	0	15
180	1	2	405	6	3
181	11	0	592	1	15
182	6	2	1275	6	7
183	3	0	476	6	12
184	3	3	1154	8	16
185	3	2	327	6	14
186	2	1	197	4	19
187	3	1	897	8	5
188	3	0	334	7	11
189	7	0	870	5	19
190	8	3	1863	5	7
191	5	2	976	7	19
192	4	1	150	6	6
193	3	4	482	5	16
194	3	1	430	4	4
195	3	4	586	2	14
196	3	2	2471	1	15
197	35	2	433	1	14
198	4	3	787	3	15
199	4	4	655	9	0
